ECG,Filtered ECG,R peaks,Heart rate
322.44598,,,
320.25,,,
333.426,,,
338.184,,,
325.008,,,
345.138,,,
330.498,,,
348.066,,,
322.08,,,
337.452,,,
345.138,,,
326.472,,,
334.524,,,
341.112,,,
325.008,,,
343.674,,,
322.812,,,
317.322,,,
319.518,,,
319.884,,,
319.152,,,
335.256,,,
342.21,,,
323.544,,,
323.178,,,
324.276,,,
341.478,,,
321.714,,,
325.374,,,
316.224,,,
343.30798,,,
339.28198,,,
345.138,,,
333.792,,,
322.44598,,,
334.88998,,,
324.642,,,
324.276,,,
315.858,,,
343.674,,,
327.204,,,
338.916,,,
342.576,,,
314.39398,,,
333.792,,,
340.38,,,
344.772,,,
320.25,,,
345.87,,,
318.786,,,
333.792,,,
326.83798,,,
324.642,,,
334.88998,,,
339.648,,,
349.53,,,
348.798,,,
343.674,,,
325.74,,,
336.72,,,
345.138,,,
331.962,,,
322.812,,,
321.714,,,
320.982,,,
347.69998,,,
325.74,,,
336.354,,,
318.41998,,,
338.184,,,
315.858,,,
322.44598,,,
330.86398,,,
330.132,,,
339.648,,,
344.406,,,
323.544,,,
346.968,,,
347.69998,,,
344.04,,,
333.792,,,
337.818,,,
319.518,,,
322.08,,,
338.55,,,
321.348,,,
331.596,,,
345.87,,,
322.08,,,
323.178,,,
324.642,,,
317.688,,,
337.452,,,
321.714,,,
343.674,,,
320.25,,,
327.936,,,
341.478,,,
335.988,,,
322.44598,,,
318.41998,,,
320.25,,,
337.086,,,
338.184,,,
327.936,,,
323.91,,,
345.87,,,
341.478,,,
325.374,,,
334.88998,,,
350.262,,,
344.772,,,
322.812,,,
347.33398,,,
329.4,,,
324.642,,,
343.674,,,
336.354,,,
348.432,,,
348.066,,,
328.668,,,
332.328,,,
342.942,,,
310.734,,,
344.406,,,
346.236,,,
325.374,,,
320.25,,,
345.504,,,
346.602,,,
325.008,,,
348.432,,,
322.08,,,
329.034,,,
325.74,,,
340.38,,,
342.942,,,
325.374,,,
337.452,,,
344.04,,,
314.76,,,
326.472,,,
325.374,,,
340.014,,,
329.766,,,
325.008,,,
334.524,,,
328.668,,,
334.158,,,
340.746,,,
349.164,,,
348.432,,,
343.674,,,
335.988,,,
334.158,,,
319.152,,,
323.544,,,
345.87,,,
317.688,,,
335.622,,,
342.942,,,
320.616,,,
323.544,,,
320.616,,,
346.602,,,
342.576,,,
325.008,,,
316.224,,,
325.374,,,
339.648,,,
342.942,,,
343.674,,,
342.576,,,
340.746,,,
335.988,,,
347.33398,,,
330.498,,,
334.158,,,
319.518,,,
319.152,,,
342.21,,,
329.4,,,
315.126,,,
344.772,,,
341.478,,,
342.21,,,
323.178,,,
333.426,,,
338.184,,,
324.276,,,
339.648,,,
344.406,,,
345.504,,,
327.57,,,
318.41998,,,
314.39398,,,
341.478,,,
320.982,,,
326.83798,,,
339.28198,,,
312.198,,,
332.694,,,
328.668,,,
337.818,,,
339.28198,,,
339.28198,,,
346.602,,,
326.472,,,
315.126,,,
313.296,,,
344.04,,,
323.544,,,
322.812,,,
320.25,,,
341.112,,,
324.642,,,
318.786,,,
338.55,,,
339.28198,,,
329.766,,,
320.25,,,
323.544,,,
330.498,,,
339.28198,,,
334.88998,,,
337.452,,,
345.504,,,
348.066,,,
316.224,,,
323.91,,,
335.988,,,
342.942,,,
327.204,,,
335.622,,,
331.962,,,
335.622,,,
329.4,,,
342.576,,,
344.04,,,
330.498,,,
323.544,,,
328.302,,,
337.452,,,
320.982,,,
319.152,,,
323.544,,,
339.28198,,,
337.086,,,
325.374,,,
334.88998,,,
333.792,,,
338.55,,,
316.956,,,
323.178,,,
315.858,,,
322.08,,,
324.642,,,
335.256,,,
344.04,,,
322.08,,,
330.498,,,
334.158,,,
340.014,,,
312.564,,,
318.786,,,
339.648,,,
319.518,,,
346.236,,,
345.87,,,
320.25,,,
338.184,,,
338.184,,,
349.896,,,
341.112,,,
346.968,,,
342.576,,,
346.236,,,
316.224,,,
315.126,,,
316.59,,,
346.602,,,
344.772,,,
330.86398,,,
343.674,,,
319.152,,,
340.38,,,
329.766,,,
344.04,,,
326.472,,,
342.942,,,
324.642,,,
326.83798,,,
333.426,,,
324.642,,,
314.39398,,,
341.844,,,
335.622,,,
345.504,,,
321.714,,,
326.106,,,
346.602,,,
312.198,,,
315.858,,,
324.642,,,
345.504,,,
336.354,,,
337.818,,,
322.812,,,
334.88998,,,
338.55,,,
325.374,,,
344.406,,,
324.642,,,
318.786,,,
323.544,,,
341.478,,,
333.426,,,
335.622,,,
344.04,,,
346.236,,,
342.576,,,
336.354,,,
348.066,,,
325.008,,,
333.792,,,
334.88998,,,
322.08,,,
325.374,,,
316.956,,,
337.452,,,
337.086,,,
337.452,,,
338.55,,,
334.158,,,
328.302,,,
337.452,,,
351.36,,,
324.642,,,
345.87,,,
327.57,,,
344.406,,,
343.30798,,,
341.112,,,
339.28198,,,
335.622,,,
319.884,,,
324.276,,,
315.126,,,
333.792,,,
342.21,,,
316.59,,,
346.602,,,
340.38,,,
334.158,,,
322.812,,,
314.76,,,
315.858,,,
341.112,,,
345.87,,,
346.968,,,
332.328,,,
315.492,,,
346.968,,,
327.936,,,
339.648,,,
329.4,,,
318.786,,,
322.44598,,,
315.126,,,
335.988,,,
352.824,,,
342.576,,,
374.784,,,
361.974,,,
383.568,,,
362.34,,,
386.496,,,
380.63998,,,
351.36,,,
325.008,,,
326.83798,,,
337.818,,,
320.982,,,
310.00198,,,
299.754,,,
324.276,,,
300.12,,,
322.08,,,
304.512,,,
322.08,,,
307.44,,,
329.4,,,
301.218,,,
338.184,,,
331.23,,,
334.524,,,
321.348,,,
305.97598,,,
327.204,,,
314.39398,,,
294.264,,,
282.552,,,
334.158,,,
399.672,,,
503.25,,,
598.044,,,
608.292,,,
563.64,,,
499.59,,,
381.738,,,
301.95,,,
266.448,,,
238.26599,,,
241.926,,,
255.834,,,
255.102,,,
280.722,,,
263.886,,,
285.846,,,
288.774,,,
284.016,,,
306.342,,,
293.166,,,
314.39398,,,
313.296,,,
289.506,,,
303.414,,,
317.688,,,
314.76,,,
314.39398,,,
297.55798,,,
309.27,,,
322.812,,,
325.008,,,
328.668,,,
316.224,,,
333.426,,,
326.472,,,
338.55,,,
335.256,,,
338.55,,,
318.41998,,,
313.296,,,
330.132,,,
322.812,,,
328.302,,,
346.968,,,
357.948,,,
339.648,,,
350.262,,,
378.078,,,
385.764,,,
367.098,,,
374.418,,,
376.98,,,
389.424,,,
409.91998,,,
401.50198,,,
409.91998,,,
376.248,,,
382.836,,,
370.026,,,
384.3,,,
379.176,,,
362.706,,,
342.942,,,
332.694,,,
327.936,,,
340.014,,,
316.224,,,
312.93,,,
311.1,,,
302.316,,,
278.526,,,
293.166,,,
269.01,,,
274.134,,,
268.644,,,
270.84,,,
292.8,,,
275.232,,,
288.042,,,
312.564,,,
314.02798,,,
287.31,,,
312.93,,,
302.316,,,
317.688,,,
319.152,,,
317.688,,,
310.368,,,
310.00198,,,
308.904,,,
325.374,,,
317.322,,,
330.86398,,,
331.596,,,
315.858,,,
310.734,,,
326.83798,,,
335.988,-3.9702055,,
321.714,22.414125,,
341.844,36.80165,,
325.74,34.172836,,
342.21,20.397055,,
326.106,5.6095915,,
330.86398,-3.7337952,,
319.518,-7.7840114,,
341.844,-10.199746,,
314.02798,-13.164938,,
321.714,-15.329156,,
343.30798,-13.86977,,
327.936,-7.893485,,
334.88998,0.3393749,,
325.74,7.230169,,
329.766,10.517262,,
340.38,10.168763,,
344.772,7.09691,,
325.008,1.6943521,,
319.884,-5.797444,,
325.74,-13.425633,,
343.674,-16.692259,,
311.832,-10.815579,,
347.69998,4.8522396,,
325.374,23.989822,,
345.87,35.468876,,
337.452,30.206207,,
339.28198,8.167211,,
323.544,-20.036049,,
329.4,-39.009575,,
317.322,-38.37681,,
319.518,-19.676981,,
346.602,4.7182097,,
322.812,20.059248,,
339.28198,19.059444,,
329.4,6.159676,,
323.544,-6.590431,,
329.4,-8.719685,,
324.642,1.2316378,,
341.478,15.250695,,
321.714,22.262743,,
349.896,16.365198,,
319.518,0.8502037,,
338.184,-14.578867,,
326.106,-20.927961,,
322.812,-15.995223,,
338.916,-5.210211,,
334.88998,2.9179149,,
327.57,3.0895302,,
341.844,-3.298083,,
312.564,-9.648073,,
328.302,-9.205603,,
344.406,0.066850536,,
323.91,14.031222,,
325.008,25.028688,,
333.792,26.628622,,
340.38,17.345247,,
334.524,1.1834072,,
311.1,-14.94061,,
334.524,-24.98801,,
316.956,-26.43825,,
341.844,-20.50252,,
329.766,-10.367737,,
329.766,0.8861614,,
347.33398,11.186638,,
339.648,18.944448,,
341.478,22.225586,,
340.746,19.04044,,
345.504,9.052143,,
323.91,-4.670302,,
331.962,-15.9284,,
320.982,-18.553366,,
342.942,-10.81117,,
318.41998,2.3264241,,
337.452,11.584842,,
325.374,9.666564,,
337.086,-2.852348,,
323.178,-16.844635,,
323.544,-20.606981,,
335.256,-8.716271,,
327.936,12.903768,,
344.406,30.184013,,
346.236,30.721972,,
325.008,13.097382,,
344.772,-11.597235,,
320.25,-27.588198,,
320.25,-25.839169,,
345.504,-10.2389145,,
319.152,6.2519946,,
342.942,12.261658,,
336.354,6.709502,,
316.956,-1.5312996,,
339.28198,-2.4460323,,
338.55,5.6363397,,
318.054,14.293614,,
344.04,12.706025,,
323.544,-1.8544087,,
334.88998,-20.14739,,
315.126,-27.654402,,
319.884,-16.626266,,
339.648,6.697121,,
341.478,26.176085,,
327.936,28.204748,,
319.884,12.350097,,
339.648,-8.6138315,,
320.616,-19.259315,,
326.472,-13.784721,,
318.786,0.14935021,,
329.4,8.887947,,
327.57,4.8166184,,
328.302,-7.4159045,,
332.328,-15.550661,,
319.152,-10.816454,,
323.178,4.3382263,,
334.524,18.430746,,
338.55,20.798248,,
343.674,10.357583,,
322.08,-4.1422305,,
322.812,-12.074908,,
320.25,-9.739002,,
335.988,-2.3939965,,
341.478,1.6479931,,
322.812,-1.0315619,,
323.544,-6.2797527,,
319.152,-7.0298457,,
336.72,-0.5410201,,
332.328,8.677933,,
340.746,12.887359,,
323.91,8.192308,,
315.126,-1.9082137,,
346.968,-9.638388,,
326.106,-9.681365,,
319.884,-3.341643,,
341.844,3.3945508,,
327.936,5.661808,,
329.4,3.7452893,,
327.57,1.7393812,,
337.818,2.5754528,,
320.25,4.6190696,,
335.622,3.3502316,,
329.034,-3.4905567,,
315.858,-12.48913,,
328.668,-16.603954,,
327.936,-11.200824,,
319.518,1.3943009,,
342.942,13.221644,,
340.38,17.007305,,
322.44598,11.953442,,
330.132,3.8370426,,
338.184,-0.6162277,,
340.014,0.11294197,,
339.28198,1.348485,,
318.054,-2.6692078,,
325.374,-12.336881,,
348.432,-21.069553,,
317.688,-20.394894,,
329.034,-7.5074077,,
341.844,11.409464,,
330.86398,25.25109,,
327.57,26.20175,,
345.504,15.257486,,
331.962,0.6341139,,
330.86398,-9.181354,,
315.858,-11.548325,,
327.57,-9.959601,,
335.622,-9.0339155,,
340.014,-9.4734125,,
317.688,-7.870056,,
344.772,-1.2776738,,
325.008,8.314255,,
344.772,14.485446,,
339.28198,11.9207945,,
339.648,1.9043071,,
339.28198,-7.759256,,
320.25,-9.017784,,
337.452,-0.7724407,,
346.236,9.604697,,
342.576,12.2965145,,
332.694,3.6845663,,
336.354,-9.999729,,
321.714,-17.55274,,
341.844,-12.296587,,
339.28198,1.9628711,,
343.30798,13.832251,,
335.256,13.788496,,
320.616,2.161868,,
341.112,-11.193822,,
343.674,-15.2343645,,
320.25,-6.8870745,,
328.668,6.7376533,,
325.008,14.746962,,
341.112,11.72068,,
337.452,1.8115145,,
318.054,-5.5783663,,
323.178,-4.4034543,,
327.936,2.8231542,,
324.642,7.6490903,,
347.33398,3.5546525,,
324.276,-7.9698343,,
323.91,-18.380735,,
317.322,-19.075891,,
346.602,-8.365413,,
333.792,7.2821083,,
344.04,18.32354,,
343.674,19.022684,,
327.57,10.717722,,
336.354,-0.3316606,,
340.746,-7.856097,,
335.256,-9.115171,,
321.348,-5.120976,,
335.988,1.2214392,,
326.472,6.7373295,,
338.55,8.542959,,
322.44598,4.5790267,,
341.112,-4.929544,,
319.152,-16.029774,,
315.492,-21.853012,,
330.498,-16.599749,,
339.648,-0.43480262,,
347.33398,18.886936,,
328.302,30.068945,,
339.28198,25.859232,,
345.504,8.573364,,
341.112,-11.067767,,
340.014,-21.348497,,
326.83798,-17.71581,,
322.812,-5.444995,,
348.432,5.0859113,,
346.236,6.5681057,,
337.452,-0.08873078,,
324.276,-7.3605347,,
334.158,-7.6791883,,
318.054,0.5053994,,
345.138,11.735689,,
348.432,17.87663,,
326.472,14.049438,,
320.982,1.8111633,,
326.83798,-12.178769,,
325.008,-20.45489,,
333.426,-18.930256,,
335.256,-8.691384,,
324.642,5.024182,,
322.08,15.678575,,
345.87,18.630424,,
345.138,13.281427,,
325.008,3.1643546,,
329.4,-6.20119,,
343.30798,-10.585725,,
324.642,-9.391914,,
319.152,-5.382499,,
347.69998,-2.0058558,,
339.28198,-0.552573,,
336.354,0.37068325,,
320.982,2.617673,,
345.504,5.7695656,,
330.132,6.840937,,
337.818,3.1495094,,
336.354,-4.2041874,,
327.936,-9.929361,,
330.86398,-8.412787,,
323.91,1.042185,,
335.988,12.393101,,
344.406,16.770075,,
321.714,9.464268,,
341.112,-5.732846,,
325.008,-18.744602,,
313.662,-20.512913,,
341.112,-9.635192,,
333.06,6.8521833,,
343.30798,18.832512,,
343.30798,20.019491,,
333.426,11.140342,,
330.86398,-2.1576712,,
337.818,-13.789693,,
336.72,-20.07454,,
330.86398,-19.58902,,
323.91,-12.019774,,
346.236,1.5356323,,
324.642,17.014013,,
346.602,27.344664,,
339.28198,25.948315,,
323.544,12.034161,,
342.942,-7.046026,,
322.08,-19.744864,,
310.734,-18.632658,,
330.498,-6.56313,,
346.968,5.0407147,,
317.322,5.287585,,
337.818,-6.7787285,,
322.812,-20.55056,,
321.714,-22.057627,,
330.86398,-5.7720656,,
343.674,19.700745,,
340.38,37.210697,,
340.014,34.00204,,
329.766,11.8846035,,
328.668,-13.594473,,
324.642,-24.658104,,
327.936,-14.758892,,
329.4,6.3542285,,
338.55,19.934694,,
329.766,12.513993,,
319.152,-13.457816,,
329.034,-40.52616,,
314.76,-48.193996,,
322.812,-27.491268,,
341.844,12.121864,,
338.916,48.403603,,
340.746,60.70101,,
345.138,43.22152,,
342.576,8.201,,
320.25,-22.994856,,
316.224,-34.394325,,
337.818,-25.258781,,
312.93,-8.452256,,
325.008,0.9196194,,
342.576,-2.4352655,,
323.178,-10.725753,,
317.688,-11.043889,,
323.178,2.182646,,
342.942,20.960299,,
329.034,29.554447,,
339.648,18.062576,,
321.714,-7.66779,,
325.74,-28.905607,,
324.276,-28.436872,,
325.74,-5.1379104,,
344.406,23.717867,,
341.112,35.32866,,
329.4,19.655493,,
337.086,-11.77527,,
330.132,-34.32378,,
311.832,-29.718504,,
336.72,-1.0074221,,
340.38,29.304094,,
342.21,36.749245,,
338.55,14.182255,,
322.44598,-22.461468,,
315.126,-46.34348,,
323.91,-40.014248,,
339.648,-7.958565,,
330.498,27.76357,,
344.04,44.432354,,
334.158,34.554302,,
337.452,9.105577,,
335.256,-12.800084,,
314.76,-18.514866,,
321.348,-9.491237,,
334.88998,2.496586,,
338.916,5.888339,,
315.492,-2.1534867,,
321.714,-14.954232,,
326.106,-22.335552,,
320.25,-17.994383,,
331.596,-3.1867006,,
342.576,14.702493,,
322.812,26.720694,,
340.014,27.035078,,
343.674,15.649885,,
333.426,-1.6646106,,
342.942,-16.15362,,
315.858,-20.59673,,
333.792,-13.459228,,
342.942,-0.054461386,,
347.69998,10.618961,,
319.884,11.79225,,
346.602,3.5827937,,
331.23,-7.204902,,
324.642,-12.232706,,
329.4,-7.882208,,
327.936,2.248142,,
337.452,10.4503355,,
320.616,10.919333,,
337.818,3.7908373,,
327.57,-5.683271,,
319.152,-11.487587,,
325.008,-10.780462,,
339.28198,-4.6010776,,
339.28198,4.0955014,,
322.08,12.376019,,
346.236,17.565557,,
344.772,16.808605,,
341.112,8.099246,,
329.4,-7.019269,,
340.38,-21.844296,,
325.374,-27.125916,,
338.55,-17.555138,,
348.432,2.6689556,,
323.178,20.780308,,
342.21,23.838549,,
349.164,8.859482,,
330.132,-13.671225,,
323.544,-26.753096,,
318.786,-19.638752,,
334.524,3.5833364,,
341.112,26.774271,,
340.014,33.99562,,
339.28198,21.47896,,
325.74,-0.2801263,,
325.374,-15.718572,,
332.694,-16.784704,,
323.91,-8.428847,,
342.576,-2.8203382,,
343.674,-7.740326,,
315.858,-19.330835,,
322.08,-25.33962,,
347.69998,-15.89633,,
344.04,7.439917,,
346.968,31.930737,,
345.87,42.87636,,
342.576,34.23078,,
341.478,12.356732,,
348.066,-9.393119,,
322.08,-20.351288,,
341.112,-18.908003,,
323.544,-11.515982,,
335.256,-6.3406734,,
325.008,-7.122322,,
338.916,-11.535861,,
330.132,-14.138268,,
316.224,-10.728283,,
339.28198,-0.8793274,,
325.74,12.299354,,
338.55,23.997257,,
337.086,29.631884,,
346.602,26.34063,,
329.034,14.1779175,,
319.152,-3.2228105,,
346.602,-19.405325,,
320.982,-27.771503,,
322.44598,-25.156271,,
344.04,-13.942863,,
325.008,-0.8254747,,
335.622,7.365224,,
345.504,7.972779,,
334.158,3.816461,,
336.354,0.53591704,,
329.766,2.0712123,,
341.112,7.756221,,
338.916,13.105408,,
335.988,13.40741,,
344.406,7.181826,,
318.054,-3.0030797,,
345.504,-12.516466,,
324.276,-17.512203,,
344.04,-16.515842,,
319.884,-10.206997,,
338.916,-0.479596,,
342.576,9.991376,,
337.086,17.695415,,
343.674,18.873491,,
340.38,11.465468,,
325.374,-2.5667467,,
324.642,-16.78606,,
334.158,-23.160158,,
325.74,-17.12438,,
332.328,-1.3443434,,
323.178,15.089673,,
324.642,22.222616,,
343.674,15.979156,,
335.988,1.1649508,,
315.492,-11.776082,,
314.02798,-14.158786,,
335.988,-5.268251,,
333.792,7.237928,,
343.674,13.090576,,
320.25,7.0782375,,
331.962,-7.051423,,
327.204,-19.290146,,
348.066,-20.585728,,
319.518,-9.24211,,
325.008,8.049623,,
348.798,21.025198,,
341.112,22.775946,,
344.04,13.819638,,
313.662,0.7743982,,
321.714,-8.839793,,
346.968,-11.553635,,
324.276,-9.190815,,
324.642,-6.0721273,,
320.982,-4.9176183,,
339.648,-4.8663836,,
321.714,-2.993514,,
340.746,2.288907,,
343.30798,9.077037,,
328.668,13.060147,,
337.818,11.020473,,
335.988,3.7653546,,
345.138,-4.153279,,
340.38,-7.9305887,,
320.982,-6.39766,,
339.28198,-2.9298992,,
341.478,-2.3448067,,
324.276,-6.223218,,
336.72,-10.747645,,
321.714,-9.374561,,
346.236,1.36003,,
317.688,17.598516,,
340.746,29.451298,,
340.014,27.577782,,
336.72,10.3761215,,
314.76,-13.861808,,
329.034,-31.897722,,
325.374,-34.22096,,
331.23,-21.1078,,
315.858,-1.6912475,,
348.432,12.963697,,
342.942,17.314312,,
338.916,13.818486,,
326.472,9.179789,,
349.53,8.033937,,
324.642,9.385237,,
343.674,8.365227,,
344.04,1.3280135,,
329.034,-10.252774,,
319.152,-20.289154,,
330.86398,-22.417788,,
345.87,-14.638812,,
326.472,-0.7868392,,
338.916,11.979032,,
338.55,17.602697,,
345.87,14.431657,,
328.668,5.564148,,
343.674,-3.482143,,
322.08,-8.056948,,
333.792,-6.72865,,
342.942,-1.595994,,
323.178,3.4099228,,
330.86398,5.168498,,
323.544,3.32135,,
333.792,0.20036496,,
333.792,-1.3023773,,
324.642,-0.337787,,
324.276,1.0379354,,
322.08,-0.2697885,,
327.57,-5.1978636,,
345.138,-10.903552,,
322.08,-12.5769415,,
330.86398,-7.4993887,,
325.008,2.2211947,,
346.236,11.0256,,
342.942,14.5079775,,
347.33398,13.067222,,
329.766,10.892228,,
335.622,10.902502,,
342.576,10.613328,,
341.478,3.7644794,,
323.544,-12.699911,,
320.616,-32.592155,,
331.596,-42.25982,,
320.25,-30.728878,,
325.374,-0.51304716,,
342.576,31.012846,,
342.576,42.976467,,
344.406,27.324732,,
335.622,-3.3747385,,
319.152,-24.43756,,
336.354,-18.366894,,
347.33398,10.390625,,
342.942,37.945156,,
346.968,39.62748,,
334.158,10.0396,,
348.066,-32.00864,,
309.27,-57.96629,,
317.688,-51.61456,,
334.88998,-20.677116,,
338.55,11.124537,,
342.942,24.129679,,
324.276,17.612535,,
340.746,7.3481655,,
338.916,9.15398,,
339.28198,23.697737,,
339.28198,36.081856,,
348.066,30.097307,,
344.406,3.925568,,
316.956,-26.951685,,
342.942,-42.21169,,
325.008,-33.427536,,
335.622,-10.484219,,
345.504,7.4852,,
324.642,8.199684,,
346.968,-4.689377,,
336.354,-16.644232,,
318.786,-15.795139,,
323.544,-2.4763973,,
342.21,13.089799,,
348.798,21.45766,,
325.008,22.18282,,
337.452,22.024176,,
343.674,25.693806,,
339.28198,28.993559,,
346.968,21.750742,,
327.57,-1.6921977,,
344.406,-34.351494,,
320.616,-59.167118,,
313.296,-61.102493,,
333.426,-38.877846,,
337.086,-6.35136,,
345.504,17.790062,,
337.818,23.634428,,
340.38,16.094519,,
323.91,9.151601,,
338.916,13.685927,,
335.256,28.857094,,
350.262,43.26734,,
345.138,43.999207,,
322.812,26.028543,,
322.08,-4.608937,,
341.478,-35.012173,,
315.492,-53.0077,,
316.59,-53.071857,,
326.83798,-37.934227,,
318.786,-16.237389,,
334.88998,1.9214541,,
323.544,9.718156,,
342.576,6.903848,,
330.498,0.0030598168,,
312.93,-1.4294984,,
322.44598,8.921227,,
338.55,29.123104,,
339.648,49.122543,,
347.33398,56.662697,,
336.72,45.203022,,
322.08,18.12628,,
346.236,-13.830794,,
323.91,-39.681175,,
321.714,-54.11845,,
322.44598,-58.00549,,
320.982,-54.19023,,
340.746,-43.44715,,
323.91,-24.677523,,
314.39398,1.1378556,,
346.968,27.845364,,
337.452,46.013462,,
346.236,49.16885,,
314.39398,39.133755,,
316.224,25.307257,,
326.472,17.72932,,
333.792,19.302256,,
337.086,23.594925,,
318.41998,20.15029,,
335.256,3.0354102,,
325.74,-24.165142,,
349.53,-50.58448,,
345.504,-65.33153,,
323.91,-63.978077,,
355.75198,-49.843105,,
354.288,-30.193613,,
361.608,-11.076256,,
370.392,5.4968486,,
378.444,20.976973,,
355.02,37.77368,,
367.098,56.69583,,
369.66,75.26838,,
374.784,87.29869,,
372.954,84.38339,,
356.85,59.90145,,
331.23,14.25704,,
321.714,-42.184177,,
328.302,-92.02986,,
301.58398,-119.45732,,
315.126,-119.09808,,
289.872,-98.18491,,
299.754,-69.5329,,
325.74,-40.775066,,
304.512,-9.34252,,
319.884,31.745646,,
327.936,82.24536,,
314.02798,128.76021,,
330.86398,152.04723,,
334.524,142.64769,,
313.296,110.199295,,
334.88998,75.1819,,
311.466,47.608776,,
325.008,12.026122,,
328.302,-62.927254,,
319.884,-191.74643,,
283.65,-340.78415,,
304.878,-429.14816,,
337.086,-371.90134,,
387.96,-141.76204,,
487.146,194.86665,,
572.058,499.43564,,
622.2,633.28687,622.2,15
566.20197,535.7867,,
488.244,257.4702,,
372.58798,-72.693634,,
307.806,-321.95688,,
236.06999,-420.2595,,
250.344,-379.16245,,
228.384,-260.913,,
245.952,-128.85031,,
245.952,-16.163065,,
270.474,72.18974,,
277.428,138.23969,,
279.624,175.74246,,
294.264,174.13884,,
272.304,133.67216,,
277.794,73.150856,,
284.016,20.367014,,
294.63,-7.135011,,
292.8,-13.608774,,
310.734,-18.576214,,
312.93,-38.14626,,
312.198,-70.56146,,
313.296,-97.87963,,
304.512,-101.166756,,
302.316,-75.438515,,
327.204,-32.246113,,
336.72,10.417461,,
303.78,40.647285,,
330.86398,57.08863,,
335.622,63.78999,,
312.198,62.808144,,
324.276,52.569576,,
320.25,32.74352,,
315.858,9.092197,,
311.466,-8.257154,,
315.492,-12.648432,,
339.648,-7.498292,,
326.83798,-4.5824275,,
339.648,-14.338783,,
339.648,-36.17887,,
326.83798,-57.4485,,
340.746,-62.501606,,
339.28198,-44.677063,,
375.516,-11.454718,,
358.68,21.174189,,
372.58798,40.18879,,
383.934,43.534916,,
383.202,38.821148,,
398.94,34.896214,,
386.862,34.004585,,
402.966,30.913977,,
386.13,18.980675,,
407.358,-2.657639,,
382.104,-27.012547,,
390.156,-43.814693,,
374.784,-46.695873,,
382.47,-37.170105,,
376.98,-22.618908,,
367.098,-10.408785,,
346.602,-3.0184267,,
358.314,2.274597,,
354.288,9.5211735,,
315.858,19.62907,,
333.426,28.998505,,
301.58398,32.215683,,
312.198,26.481028,,
304.512,14.172848,,
283.284,1.4914206,,
288.042,-5.8226404,,
286.212,-6.4844365,,
270.474,-4.3871307,,
290.604,-5.489701,,
293.53198,-13.11067,,
281.82,-25.003885,,
279.258,-34.29912,,
281.088,-33.68694,,
292.8,-20.084524,,
306.342,3.1363628,,
299.388,27.553228,,
315.492,43.700447,,
317.322,45.406307,,
307.44,32.409107,,
309.27,10.322071,,
304.512,-11.83381,,
309.27,-25.527683,,
310.368,-26.540266,,
309.27,-16.963509,,
301.95,-4.0609903,,
329.766,3.8836553,,
328.302,2.6244023,,
322.44598,-5.2932434,,
308.538,-12.243745,,
324.642,-10.903011,,
340.38,0.32741353,,
316.224,15.81869,,
334.88998,26.352402,,
336.72,25.269167,,
331.596,12.648478,,
335.622,-5.2723455,,
304.146,-20.448336,,
325.008,-27.499424,,
335.256,-25.27063,,
324.276,-15.462222,,
318.41998,-0.7479468,,
338.55,15.573781,,
338.55,28.859703,,
331.23,33.5811,,
341.112,26.158085,,
336.354,8.381421,,
309.27,-12.087811,,
323.178,-25.834316,,
327.57,-27.948013,,
324.276,-21.324057,,
310.734,-13.757941,,
323.178,-10.8401375,,
334.524,-10.727328,,
318.786,-5.764717,,
344.406,9.874035,,
324.642,32.965687,,
346.602,51.140682,,
346.236,50.9218,,
345.138,27.952719,,
336.72,-8.719397,,
321.714,-41.85887,,
315.858,-56.79825,,
319.152,-49.685314,,
345.504,-27.732431,,
327.936,-2.6360915,,
341.478,16.787745,,
333.792,27.44884,,
337.818,29.946604,,
345.504,25.46932,,
345.87,15.187982,,
322.08,1.9353207,,
322.08,-9.055355,,
335.622,-12.641561,,
340.014,-7.9372873,,
318.054,0.008206772,,
338.916,3.5326908,,
325.008,-1.432222,,
336.72,-11.554434,,
335.256,-18.374666,,
319.152,-15.121636,,
325.374,-2.3995335,,
344.406,12.104467,,
341.112,19.617657,,
345.504,16.86304,,
318.054,7.8332014,,
337.818,-0.25748548,,
339.648,-2.921771,,
342.942,-1.190759,,
322.08,0.5018505,,
341.112,-1.2797506,,
339.28198,-6.3465133,,
336.354,-11.72925,,
323.91,-14.304074,,
339.28198,-12.457143,,
342.576,-5.9366574,,
332.694,4.6387625,,
341.112,17.128311,,
346.602,26.816872,,
344.406,27.375074,,
324.642,14.893026,,
348.066,-7.501088,,
330.86398,-29.00939,,
325.374,-36.837223,,
313.296,-25.106962,,
339.28198,-0.17251486,,
345.87,22.68604,,
346.602,29.591103,,
324.642,17.811056,,
334.524,-2.7038736,,
326.106,-17.217762,,
326.83798,-17.18746,,
324.276,-5.654441,,
323.91,6.7311254,,
341.112,11.021975,,
318.786,6.569231,,
319.518,-0.14791808,,
320.616,-2.4714248,,
327.57,0.42662916,,
322.08,3.6697373,,
338.55,2.160496,,
311.832,-4.1318936,,
319.152,-10.018061,,
325.008,-9.938919,,
349.53,-3.0903049,,
318.054,5.8649044,,
339.28198,10.851,,
342.576,9.220819,,
323.178,3.0867832,,
324.642,-3.4618185,,
347.33398,-7.957802,,
345.504,-10.357775,,
315.492,-10.805619,,
310.368,-7.584732,,
342.942,1.627521,,
344.772,15.8307085,,
342.21,28.328138,,
334.158,29.647636,,
325.374,14.769015,,
334.158,-11.103007,,
326.106,-34.00663,,
342.942,-40.20116,,
320.25,-26.265985,,
339.648,-2.1044216,,
340.38,16.185322,,
342.576,18.362001,,
349.164,7.448794,,
345.87,-3.5459926,,
320.616,-2.8941162,,
351.36,9.967891,,
331.962,24.147789,,
343.30798,26.699533,,
331.596,13.61732,,
328.668,-6.9269485,,
332.694,-21.668034,,
314.02798,-23.29124,,
320.25,-15.775028,,
326.83798,-9.562635,,
326.472,-11.176631,,
342.576,-16.823227,,
319.518,-15.921139,,
322.44598,-1.5102912,,
344.406,21.86676,,
348.432,40.233765,,
348.066,40.936066,,
341.478,23.051188,,
331.23,-1.5346844,,
322.44598,-17.46942,,
328.668,-17.872578,,
332.694,-8.874144,,
330.498,-3.176454,,
319.884,-8.440848,,
322.44598,-20.538057,,
314.02798,-27.280943,,
317.688,-19.190027,,
336.72,2.0036952,,
336.354,24.200617,,
316.956,34.148083,,
335.988,27.226175,,
340.38,10.025635,,
329.034,-5.6630697,,
323.91,-11.852753,,
314.02798,-9.013626,,
340.746,-3.4558837,,
335.256,-0.7908364,,
320.982,-1.527348,,
325.008,-2.1545458,,
335.988,0.13991924,,
322.812,3.9590313,,
326.472,4.697578,,
338.184,-0.9467212,,
323.178,-11.108573,,
316.956,-19.116997,,
321.714,-18.09038,,
342.21,-6.284109,,
326.83798,10.9540825,,
340.746,24.261736,,
343.30798,26.344208,,
342.576,16.853344,,
316.59,2.609131,,
345.87,-7.1466565,,
338.184,-7.3113756,,
336.72,-0.6659779,,
320.982,4.150583,,
336.72,-0.6029111,,
322.08,-15.024452,,
334.158,-30.141455,,
317.688,-33.61175,,
328.302,-18.945652,,
322.08,8.602987,,
344.772,34.440548,,
338.184,44.1825,,
342.21,33.45763,,
339.28198,10.518687,,
333.06,-10.31754,,
319.884,-19.119118,,
344.406,-16.388233,,
318.054,-10.306299,,
342.942,-8.276279,,
346.602,-10.487446,,
323.91,-10.956582,,
331.962,-4.4779162,,
336.72,7.4264045,,
338.916,17.266356,,
346.236,18.253689,,
328.302,10.438686,,
330.86398,0.44452426,,
337.818,-4.8574142,,
322.812,-4.524182,,
319.518,-3.5426831,,
335.622,-6.736951,,
343.30798,-12.788063,,
318.054,-14.661654,,
322.44598,-6.513702,,
332.328,9.455464,,
345.504,23.188759,,
338.55,24.574938,,
346.236,12.10551,,
325.374,-5.557217,,
324.642,-16.720016,,
335.988,-16.125122,,
329.4,-8.254261,,
337.086,-1.8290044,,
348.066,-1.1447777,,
325.374,-2.6804314,,
329.034,-0.05771223,,
338.916,7.929738,,
341.478,14.683031,,
344.772,11.79185,,
339.28198,-1.8339082,,
318.786,-16.879585,,
328.668,-20.538736,,
338.916,-7.8594947,,
335.256,12.828364,,
339.28198,25.966043,,
344.772,21.558651,,
331.962,3.583167,,
322.08,-13.529577,,
319.152,-17.359552,,
345.87,-7.9387827,,
323.178,3.003474,,
340.014,3.1737616,,
320.25,-8.792362,,
320.982,-21.709621,,
323.544,-21.505745,,
338.184,-3.6911905,,
343.674,22.108418,,
331.962,39.255104,,
342.942,36.661007,,
330.86398,16.510952,,
344.406,-8.448884,,
323.544,-24.80663,,
338.916,-27.112211,,
317.688,-19.105215,,
344.04,-8.313019,,
333.06,0.17114732,,
343.30798,5.6642795,,
341.112,9.411492,,
338.916,11.401107,,
341.112,9.942321,,
325.374,3.9784708,,
346.236,-4.7394485,,
329.4,-12.064656,,
327.936,-14.092769,,
314.02798,-9.570026,,
336.354,-0.18791479,,
342.942,10.843581,,
320.25,20.148634,,
334.524,24.489862,,
319.152,20.88464,,
346.236,7.9209514,,
319.518,-11.93842,,
319.884,-31.321367,,
324.642,-40.446392,,
310.368,-32.755848,,
343.674,-10.081895,,
337.086,16.918947,,
345.138,34.35868,,
352.824,33.52136,,
333.426,16.413166,,
338.184,-5.501273,,
342.576,-18.664833,,
329.4,-15.999249,,
335.988,-1.0621086,,
345.87,14.753903,,
330.132,19.933975,,
348.432,10.381106,,
320.25,-8.01292,,
319.884,-23.329235,,
337.818,-25.550419,,
323.178,-13.321784,,
325.008,5.0016584,,
338.916,16.98096,,
324.276,14.810647,,
341.478,1.0684615,,
325.74,-12.905634,,
332.328,-15.271267,,
329.766,-2.7381957,,
332.694,16.50748,,
342.576,28.58798,,
343.30798,24.276056,,
342.942,5.9281673,,
316.59,-14.462694,,
335.256,-24.486416,,
312.93,-20.30996,,
346.968,-8.293453,,
323.91,1.5387655,,
323.178,4.024029,,
332.694,1.8846849,,
340.014,1.1365359,,
315.858,3.9365458,,
333.06,6.1969504,,
331.23,2.471323,,
318.054,-6.8041043,,
346.602,-13.48667,,
317.322,-8.290119,,
331.596,9.588554,,
337.452,29.022236,,
342.576,34.240234,,
338.55,17.772383,,
342.576,-11.941562,,
314.39398,-35.633274,,
325.374,-37.7271,,
319.152,-18.58604,,
345.504,5.882215,,
344.406,17.215395,,
342.21,9.275212,,
316.224,-7.367137,,
319.152,-15.056339,,
342.942,-4.3852234,,
340.38,17.732132,,
346.602,33.844532,,
322.812,30.436596,,
325.008,8.852286,,
336.72,-16.149527,,
318.41998,-28.422857,,
325.374,-22.693712,,
331.23,-7.2023864,,
314.39398,4.528006,,
340.38,5.0752234,,
326.83798,-1.9395039,,
322.44598,-6.710929,,
340.38,-2.7964287,,
322.44598,7.217825,,
342.942,14.465505,,
323.91,11.987437,,
336.72,0.9747875,,
320.982,-10.18046,,
342.576,-12.898921,,
321.348,-5.369434,,
336.354,6.2643623,,
315.858,13.13236,,
348.066,10.689939,,
339.28198,1.8453059,,
315.492,-6.043523,,
328.668,-7.454586,,
331.962,-2.9943469,,
342.942,1.6415029,,
322.08,0.89559174,,
342.21,-5.704149,,
322.812,-12.946874,,
340.746,-14.117507,,
337.086,-6.5023656,,
342.576,6.247522,,
337.086,16.771173,,
346.602,19.471827,,
345.138,14.367699,,
347.69998,6.297242,,
330.86398,0.381809,,
342.21,-2.1977146,,
333.792,-4.386754,,
340.38,-9.315525,,
322.08,-15.988591,,
341.844,-18.96431,,
323.178,-12.94508,,
337.086,1.4673936,,
337.818,16.29974,,
328.302,21.29457,,
341.844,12.125502,,
324.276,-5.0504074,,
339.28198,-17.203192,,
312.93,-14.179422,,
321.348,2.8955963,,
346.236,21.612585,,
338.184,27.288744,,
322.08,14.245334,,
326.106,-9.547326,,
322.08,-28.272688,,
323.91,-30.018488,,
317.688,-15.241119,,
332.328,4.523106,,
344.04,16.210377,,
332.328,15.024718,,
333.792,6.690026,,
331.962,0.97477144,,
343.30798,2.5781476,,
344.406,7.3241405,,
338.916,6.702791,,
330.86398,-3.4991693,,
345.87,-18.19113,,
321.348,-26.129719,,
344.04,-18.811028,,
334.158,2.1410458,,
339.28198,25.125969,,
344.772,36.247395,,
347.33398,28.69064,,
322.44598,6.9432125,,
337.452,-16.754997,,
318.41998,-30.541328,,
318.786,-29.630043,,
345.504,-17.478811,,
322.44598,-1.8505247,,
326.106,10.44271,,
342.576,16.42278,,
344.04,16.516565,,
341.112,12.54794,,
335.988,6.365368,,
327.57,-0.22956088,,
322.812,-5.2578626,,
344.772,-7.163555,,
344.406,-6.012175,,
317.688,-3.8680546,,
318.41998,-3.3446639,,
327.57,-5.134068,,
335.622,-6.7696753,,
335.256,-4.29662,,
322.08,3.9514139,,
319.152,14.576899,,
336.354,20.300264,,
339.28198,15.077127,,
344.406,-0.46093938,,
317.322,-17.900831,,
315.858,-26.062925,,
337.086,-19.027742,,
346.602,-1.0966568,,
340.014,15.636461,,
327.936,19.874983,,
348.432,9.561297,,
333.06,-6.4689603,,
324.276,-15.197076,,
342.576,-9.455529,,
336.72,6.5484633,,
322.08,20.574001,,
344.406,21.842104,,
339.28198,9.092754,,
323.544,-9.049921,,
326.106,-21.24524,,
337.452,-21.916779,,
315.858,-14.188714,,
332.694,-5.550756,,
340.014,-0.7911296,,
343.30798,1.3483071,,
319.152,5.250487,,
344.772,12.644842,,
339.648,19.863945,,
334.88998,20.860222,,
340.38,13.022848,,
319.518,0.087842815,,
339.648,-10.759357,,
318.786,-14.85485,,
323.544,-13.38552,,
319.518,-10.990602,,
335.256,-10.275404,,
320.25,-9.03669,,
327.57,-3.2884314,,
338.916,6.931897,,
325.008,15.4043665,,
336.354,14.535893,,
345.138,3.3554528,,
328.668,-9.299442,,
329.4,-10.967068,,
340.014,3.02639,,
344.04,23.109648,,
339.28198,31.189451,,
340.014,15.427635,,
333.426,-17.946547,,
321.714,-46.777534,,
320.25,-48.98742,,
319.152,-20.26247,,
344.772,21.201183,,
341.112,47.540546,,
335.256,41.919594,,
340.014,10.701638,,
324.276,-22.381422,,
320.25,-34.882214,,
322.08,-21.864262,,
337.452,2.7471302,,
337.452,19.32605,,
345.504,18.245575,,
317.322,5.3430786,,
341.844,-5.789998,,
336.72,-6.412639,,
325.008,1.084912,,
332.328,7.4569206,,
337.086,5.9565315,,
342.21,-2.2686734,,
322.44598,-10.756497,,
319.884,-14.352574,,
324.642,-12.847109,,
342.576,-8.758498,,
340.38,-2.9453053,,
322.44598,6.2372103,,
324.642,18.948036,,
349.164,29.797857,,
343.30798,29.516235,,
341.112,12.619472,,
322.44598,-15.461922,,
325.374,-39.346333,,
313.662,-43.73905,,
330.86398,-25.061665,,
342.21,5.1683884,,
337.818,28.577152,,
339.28198,33.302105,,
344.406,21.569233,,
323.178,5.6483335,,
344.04,-3.5451963,,
341.844,-4.87422,,
327.57,-5.4083114,,
325.74,-11.275861,,
339.28198,-20.191757,,
328.302,-22.966507,,
344.772,-12.587069,,
317.688,7.822965,,
343.30798,25.960062,,
348.798,29.83036,,
348.066,17.517178,,
320.982,-1.3743669,,
325.74,-13.777952,,
321.714,-13.558044,,
341.478,-5.295608,,
349.53,1.2589077,,
323.544,0.45227173,,
314.02798,-4.8050776,,
338.55,-6.9943795,,
342.21,-2.0687478,,
344.04,6.235371,,
342.942,9.9000845,,
320.616,4.4959006,,
323.178,-6.123509,,
346.236,-12.829753,,
343.674,-9.255086,,
327.936,2.487363,,
334.158,13.594442,,
323.91,16.174995,,
340.38,9.717664,,
337.818,0.68102,,
336.354,-4.0820184,,
326.472,-3.669814,,
324.642,-3.2112901,,
337.086,-7.6969886,,
323.544,-15.674616,,
343.30798,-19.296038,,
340.38,-11.335614,,
322.08,7.0010104,,
344.04,25.022991,,
346.236,30.148033,,
345.138,18.197395,,
331.23,-2.518011,,
323.178,-17.356646,,
333.792,-17.038069,,
316.956,-5.1150446,,
334.158,5.278821,,
331.23,2.925993,,
319.152,-11.325517,,
320.25,-24.454618,,
321.714,-21.640617,,
337.818,1.1499101,,
328.668,32.53563,,
342.576,52.85957,,
352.458,47.66408,,
344.04,17.474007,,
328.302,-22.778904,,
320.982,-53.34584,,
319.884,-60.909584,,
323.91,-44.350567,,
334.88998,-13.013267,,
346.968,19.421602,,
339.28198,41.01651,,
322.08,45.298367,,
344.04,32.732067,,
338.55,10.420625,,
314.76,-10.453585,,
327.57,-19.76786,,
315.126,-14.305676,,
315.858,-0.3216994,,
343.30798,10.164811,,
334.158,7.8456106,,
320.25,-6.6372395,,
333.792,-22.735601,,
319.518,-27.971172,,
342.576,-17.783176,,
321.714,0.8602007,,
344.406,15.268038,,
342.576,17.430574,,
345.504,10.123934,,
324.276,3.497968,,
325.74,5.319678,,
342.576,13.706955,,
340.014,18.947495,,
333.06,12.757253,,
331.23,-3.4932206,,
314.39398,-19.219244,,
321.714,-23.531805,,
340.746,-14.670995,,
330.132,-1.4387392,,
325.74,4.7052484,,
328.302,-0.23426412,,
331.23,-9.58055,,
330.86398,-12.53028,,
322.08,-4.3949885,,
331.23,8.901852,,
339.28198,16.266636,,
322.812,11.874346,,
330.498,0.95329756,,
322.08,-4.662488,,
333.06,2.4809468,,
333.792,17.773514,,
343.30798,27.408531,,
335.256,19.871815,,
326.472,-3.6167743,,
335.988,-28.842705,,
342.576,-39.189957,,
316.956,-28.585121,,
341.112,-6.204508,,
342.576,10.905771,,
345.87,11.283776,,
330.86398,-2.2434494,,
330.86398,-15.388377,,
323.178,-14.203463,,
342.21,3.681388,,
323.178,27.107542,,
340.38,39.891422,,
342.942,32.912834,,
321.348,10.593786,,
341.478,-12.686219,,
317.322,-23.00892,,
335.256,-16.266115,,
346.602,-0.007408246,,
343.30798,12.7288065,,
345.504,12.50103,,
347.33398,-0.9867764,,
339.28198,-20.006914,,
320.982,-34.717934,,
343.30798,-39.06088,,
323.178,-32.783005,,
315.858,-19.264982,,
330.132,-1.9535421,,
316.224,17.377945,,
327.57,37.538223,,
333.426,55.715405,,
349.53,66.78081,,
318.786,65.193985,,
323.91,48.17657,,
348.432,17.703272,,
341.478,-20.040861,,
332.328,-56.94453,,
326.83798,-85.11719,,
322.08,-97.94557,,
348.798,-90.86263,,
363.072,-63.077396,,
365.268,-19.85725,,
375.15,27.124918,,
378.81,63.674,,
383.934,80.218544,,
387.96,77.45587,,
365.634,65.38483,,
377.712,55.206303,,
361.608,49.88363,,
351.72598,41.43627,,
339.28198,18.245995,,
347.33398,-22.983492,,
330.132,-70.95619,,
308.172,-105.66157,,
319.152,-112.54754,,
304.512,-93.2339,,
318.054,-63.15037,,
318.054,-37.677643,,
327.204,-18.981344,,
304.512,4.2670264,,
326.106,43.57341,,
323.178,95.970116,,
314.39398,142.40796,,
331.962,161.83488,,
334.158,148.2092,,
328.302,113.488014,,
310.00198,72.14635,,
307.074,21.713428,,
323.544,-58.93197,,
300.12,-185.52003,,
290.604,-335.70654,,
278.526,-439.0787,,
312.564,-408.8641,,
381.372,-201.70876,,
468.846,135.68161,,
571.692,472.2668,,
617.808,656.14685,617.808,15
605.73,599.21783,,
522.648,328.44196,,
391.62,-30.055965,,
307.44,-322.95163,,
266.082,-450.44977,,
244.122,-406.51428,,
254.004,-260.61737,,
248.148,-102.51925,,
264.984,9.108321,,
276.69598,64.60086,,
262.788,86.71675,,
271.206,101.05787,,
269.01,117.05397,,
274.5,128.22829,,
285.48,124.01875,,
300.852,100.022865,,
307.44,59.885353,,
308.538,11.336708,,
297.924,-37.531906,,
298.656,-78.97475,,
307.806,-105.28571,,
322.08,-110.41781,,
294.996,-93.362595,,
321.348,-60.121227,,
323.544,-21.682096,,
331.23,11.098168,,
325.374,32.114075,,
305.244,41.21216,,
331.596,42.10999,,
303.414,39.433582,,
323.544,36.859898,,
307.806,36.385044,,
319.152,37.731148,,
319.884,37.825134,,
311.1,31.586195,,
341.844,14.846567,,
339.648,-11.946227,,
315.858,-42.243446,,
317.322,-66.04545,,
323.544,-75.2932,,
351.72598,-68.06911,,
345.138,-48.507504,,
350.262,-22.998198,,
355.75198,3.660695,,
379.908,28.933512,,
392.718,50.330135,,
381.00598,63.63727,,
399.306,64.39019,,
402.6,51.711742,,
401.136,30.585207,,
382.104,9.495216,,
397.11,-5.3375607,,
389.79,-14.251949,,
394.182,-22.849737,,
383.202,-35.833622,,
361.974,-51.30851,,
365.634,-60.83763,,
361.974,-55.632145,,
332.328,-33.785206,,
357.948,-2.4116096,,
355.386,27.062302,,
320.982,46.328876,,
327.204,54.124916,,
321.348,53.918537,,
314.39398,48.38322,,
303.048,36.39121,,
298.656,15.495008,,
271.938,-12.690803,,
278.892,-39.903008,,
271.938,-54.8416,,
273.768,-50.72724,,
290.97,-30.669683,,
281.088,-6.1593456,,
297.55798,10.441169,,
286.944,13.6789465,,
306.342,7.316086,,
307.44,0.039410677,,
293.53198,-1.3838615,,
296.826,3.925109,,
319.152,12.145026,,
293.53198,18.86328,,
326.83798,21.997807,,
321.348,21.462051,,
314.39398,17.07497,,
310.368,7.7758684,,
315.858,-6.599957,,
328.302,-22.893183,,
308.172,-34.66932,,
314.76,-35.77372,,
316.956,-24.909122,,
323.544,-7.2432084,,
329.766,8.776106,,
324.642,17.12217,,
335.988,17.793404,,
324.276,15.38579,,
316.224,14.068906,,
336.72,13.597477,,
320.982,10.061444,,
326.83798,0.71351093,,
313.296,-11.722779,,
329.034,-19.716425,,
311.466,-16.68432,,
334.158,-3.1534162,,
339.648,12.274187,,
331.23,18.681484,,
337.818,11.090253,,
325.008,-5.476067,,
339.648,-19.627874,,
342.942,-22.158836,,
314.02798,-12.63569,,
341.478,1.1802491,,
338.916,10.2370205,,
335.622,11.329531,,
344.772,8.459817,,
320.616,7.701827,,
345.138,10.651615,,
336.72,12.68691,,
321.348,7.7242455,,
334.524,-4.9692893,,
343.30798,-18.491095,,
315.858,-23.204601,,
323.91,-14.910934,,
343.674,0.92784023,,
327.57,13.014856,,
342.21,13.221567,,
339.28198,3.190092,,
333.426,-7.2050505,,
311.466,-8.3430605,,
337.086,0.9258092,,
345.504,12.362548,,
333.06,15.466196,,
322.812,6.4740644,,
317.322,-8.456743,,
336.72,-18.43603,,
327.936,-16.720621,,
314.76,-5.6462436,,
337.818,6.26335,,
322.08,11.902547,,
341.112,10.886079,,
335.988,8.075825,,
326.106,7.364906,,
319.152,7.1563253,,
343.30798,2.2080297,,
333.792,-9.781502,,
319.518,-23.423767,,
312.198,-28.137285,,
321.714,-16.780117,,
341.844,6.7982926,,
340.38,28.490282,,
322.44598,33.561375,,
336.354,18.041494,,
319.518,-7.4298267,,
340.014,-24.982767,,
314.76,-22.778225,,
329.4,-3.8359258,,
333.06,16.561699,,
345.138,22.83883,,
332.694,10.985687,,
334.524,-8.960796,,
324.642,-21.450464,,
323.178,-17.816727,,
342.21,-2.5598805,,
337.818,11.185153,,
329.4,12.812317,,
322.08,2.6737444,,
331.23,-8.962567,,
336.72,-11.120269,,
315.126,-1.4934044,,
342.942,11.850938,,
316.59,17.62213,,
324.276,11.007641,,
341.478,-2.3800266,,
326.106,-11.569574,,
324.642,-9.828788,,
323.544,-0.46386495,,
321.348,6.2246046,,
344.406,2.2664154,,
340.746,-10.395326,,
319.518,-20.744724,,
316.224,-17.588188,,
338.916,0.7115084,,
344.04,23.768707,,
343.30798,36.25381,,
332.694,29.080791,,
340.014,6.01035,,
322.08,-19.253666,,
315.858,-32.84996,,
337.086,-29.696985,,
325.74,-15.145419,,
319.518,0.8510568,,
344.04,11.453176,,
335.256,16.258673,,
344.04,18.459955,,
323.91,19.547338,,
345.138,16.989668,,
344.04,7.0932527,,
335.622,-9.809111,,
326.83798,-27.018192,,
318.786,-34.7824,,
337.086,-27.129715,,
346.236,-6.847767,,
333.792,15.553792,,
340.38,28.43965,,
344.04,26.468819,,
342.21,13.528563,,
327.204,-0.69266486,,
334.88998,-7.709251,,
336.354,-5.6798496,,
334.158,0.34856,,
317.322,3.0575094,,
340.014,-1.3877368,,
335.256,-10.620892,,
316.59,-18.05034,,
335.988,-17.741425,,
328.302,-8.556164,,
322.44598,5.2304783,,
341.478,16.896101,,
345.504,21.410164,,
322.44598,17.868202,,
336.72,8.993016,,
333.06,-1.2298775,,
325.74,-9.628727,,
318.786,-14.331795,,
319.152,-14.186319,,
339.28198,-8.638729,,
329.4,1.201669,,
312.93,11.420949,,
331.596,16.089922,,
332.328,10.697196,,
333.792,-3.7488942,,
315.858,-19.535364,,
323.178,-26.118885,,
320.982,-17.275957,,
327.57,3.5696607,,
342.942,24.47855,,
344.04,32.67336,,
339.28198,23.517399,,
319.152,3.913801,,
332.328,-12.858093,,
338.184,-17.156322,,
328.302,-10.022059,,
330.86398,-1.5509973,,
327.204,-1.8177329,,
321.348,-11.781436,,
338.184,-21.848047,,
323.91,-19.621428,,
322.812,-0.75405395,,
345.504,26.000109,,
329.4,43.993374,,
342.942,40.46488,,
344.04,15.940157,,
325.74,-15.8629465,,
314.76,-37.376205,,
327.204,-38.623352,,
323.544,-22.531908,,
333.426,-1.0776899,,
346.968,13.816577,,
319.152,17.488789,,
348.432,13.244167,,
320.982,7.514443,,
339.28198,4.281832,,
329.034,3.0555675,,
325.74,1.0022196,,
334.158,-3.5054252,,
322.44598,-9.09913,,
312.93,-12.437866,,
342.576,-10.722516,,
329.034,-3.679151,,
318.786,6.065249,,
344.04,14.0676775,,
333.792,15.996805,,
346.968,9.838543,,
314.39398,-2.3810177,,
346.968,-14.575505,,
343.30798,-19.259287,,
319.518,-12.219474,,
338.916,3.648201,,
344.04,18.747435,,
351.36,22.412216,,
340.38,10.56911,,
327.57,-10.265098,,
319.884,-26.462866,,
343.674,-26.54946,,
322.812,-9.642436,,
342.942,13.535111,,
340.014,28.206753,,
336.354,26.044546,,
328.668,10.561658,,
341.478,-6.572963,,
347.69998,-14.931166,,
314.02798,-12.632064,,
333.06,-5.94201,,
334.88998,-2.3603337,,
348.066,-3.8195016,,
340.746,-5.989912,,
326.106,-3.7352128,,
322.08,2.9660466,,
345.87,8.578959,,
346.968,7.601051,,
322.08,0.74058306,,
327.936,-4.6589603,,
314.02798,-1.0757087,,
340.746,11.375825,,
335.988,23.17957,,
318.786,22.198431,,
330.86398,3.9271617,,
312.198,-23.369953,,
314.39398,-43.389793,,
318.786,-43.092453,,
317.322,-21.862225,,
341.478,8.39873,,
318.41998,31.835714,,
351.36,38.86172,,
339.28198,30.521887,,
343.674,14.961947,,
329.766,0.29712203,,
330.86398,-9.94765,,
329.034,-16.167105,,
341.478,-19.174288,,
323.178,-18.178896,,
339.28198,-12.089016,,
334.524,-2.1154413,,
322.812,7.6500907,,
343.674,12.708163,,
341.844,11.410906,,
335.256,5.8993244,,
321.714,-0.027805598,,
331.962,-3.8533478,,
328.668,-5.2991953,,
326.106,-4.896773,,
347.33398,-2.4118984,,
317.688,2.6457238,,
324.642,8.90513,,
343.674,12.295937,,
339.28198,8.575214,,
322.812,-2.307142,,
328.668,-14.31043,,
338.184,-18.807983,,
322.44598,-11.541008,,
343.30798,2.8756008,,
334.158,13.593796,,
336.72,12.051167,,
344.406,-0.5120564,,
338.184,-13.304455,,
322.08,-14.464156,,
341.478,-1.0154922,,
342.942,18.099031,,
340.38,28.665537,,
342.576,22.135704,,
339.28198,1.9449209,,
324.642,-19.577736,,
325.008,-30.53302,,
322.44598,-27.101595,,
323.544,-13.986657,,
344.04,1.1134032,,
323.544,13.065744,,
344.406,20.349686,,
315.492,22.44613,,
341.112,18.050362,,
338.916,6.8355155,,
323.544,-7.4496927,,
334.158,-17.263815,,
314.02798,-16.549387,,
326.472,-6.7807927,,
337.452,2.737004,,
344.406,2.3292353,,
322.44598,-8.545841,,
322.44598,-18.85309,,
327.204,-14.486417,,
345.504,8.384365,,
337.818,36.944878,,
346.602,49.494434,,
339.28198,32.51525,,
338.55,-6.76253,,
320.25,-43.651176,,
318.054,-53.806076,,
329.766,-31.763819,,
343.674,4.8578677,,
343.30798,29.171267,,
331.23,25.799286,,
344.406,1.9576737,,
332.694,-19.663403,,
336.354,-19.779676,,
329.4,2.4266634,,
345.138,29.694384,,
341.844,41.052956,,
345.87,27.796024,,
344.406,-1.3390996,,
316.59,-28.335276,,
322.812,-39.31637,,
325.008,-32.437157,,
344.772,-15.732383,,
329.4,0.9169545,,
338.55,12.069672,,
342.21,17.238773,,
340.746,17.68164,,
342.21,14.088464,,
345.504,7.2436175,,
340.38,-0.35033834,,
340.746,-4.953878,,
331.962,-4.4476027,,
338.184,-0.6038271,,
344.406,2.0860772,,
343.30798,0.4011211,,
334.88998,-4.5929604,,
327.57,-8.616266,,
338.55,-8.406382,,
329.034,-4.8621535,,
334.158,-1.8141277,,
344.772,-1.6114228,,
319.518,-2.2025337,,
337.818,0.8583873,,
335.988,9.077808,,
333.06,17.808075,,
342.21,19.12624,,
332.694,8.974298,,
338.55,-7.923322,,
328.668,-20.544096,,
321.348,-20.09556,,
325.008,-7.383675,,
346.236,7.662725,,
337.086,14.196079,,
341.478,9.258306,,
313.662,-0.6005438,,
326.472,-6.178417,,
348.432,-4.4275146,,
318.054,-0.8493398,,
337.818,-3.1301153,,
324.642,-12.087608,,
327.57,-18.951757,,
321.714,-12.468747,,
342.942,9.895645,,
346.602,36.85911,,
349.896,49.898796,,
341.844,37.06671,,
338.55,2.962206,,
322.08,-33.552452,,
331.596,-52.420563,,
334.524,-46.030178,,
325.74,-22.964792,,
326.106,0.31593713,,
342.21,12.3878145,,
346.236,13.86464,,
323.544,13.694149,,
339.648,19.097408,,
336.354,28.302774,,
341.478,32.067806,,
315.858,22.137173,,
335.622,-0.8749771,,
322.44598,-26.715498,,
313.662,-42.1972,,
316.224,-39.88437,,
316.956,-22.341396,,
329.4,0.41707626,,
339.28198,17.512543,,
335.988,22.944227,,
327.204,17.391216,,
341.478,6.3145547,,
335.256,-3.449873,,
327.204,-6.729127,,
337.086,-2.0153763,,
338.184,7.7580495,,
344.406,16.195791,,
340.38,16.575043,,
341.112,6.1331983,,
326.83798,-11.174374,,
334.524,-26.06843,,
340.746,-29.490988,,
323.544,-18.832954,,
338.55,-0.14514884,,
344.04,15.759958,,
330.498,20.687855,,
349.53,14.358752,,
342.576,3.6072128,,
318.41998,-3.580916,,
342.576,-4.079297,,
322.812,-0.80041313,,
336.354,1.3809208,,
340.746,0.70515513,,
322.812,-0.29952428,,
322.812,1.5177957,,
342.21,5.378956,,
320.982,6.1910405,,
334.88998,-0.5668478,,
321.348,-13.03713,,
323.91,-22.321331,,
314.39398,-18.899015,,
339.648,-1.4174609,,
322.812,19.983673,,
330.86398,29.889929,,
344.406,19.461966,,
317.322,-5.462307,,
321.714,-27.261953,,
323.178,-29.142601,,
320.25,-8.078322,,
340.38,22.131659,,
342.942,40.462044,,
335.622,33.80824,,
330.498,6.222408,,
332.328,-24.546158,,
326.106,-40.123146,,
319.518,-33.97958,,
342.942,-14.192437,,
333.792,4.5569983,,
342.942,12.536409,,
338.184,10.880649,,
346.602,8.057267,,
343.674,10.918773,,
341.478,18.280136,,
339.28198,22.15182,,
348.432,15.081115,,
345.504,-2.8220034,,
319.152,-22.950388,,
328.302,-33.957912,,
341.112,-29.575972,,
323.91,-12.621411,,
341.844,7.365085,,
342.21,20.567406,,
339.28198,22.561255,,
343.674,15.602775,,
335.988,5.566056,,
338.184,-2.4753225,,
341.478,-6.7533026,,
338.916,-8.250326,,
325.374,-8.441459,,
344.04,-7.634434,,
344.04,-5.1652594,,
339.28198,-0.8400544,,
334.88998,4.0484543,,
349.896,7.2765217,,
329.034,7.4264846,,
342.576,5.2302785,,
341.478,3.1439424,,
344.04,3.243927,,
324.276,5.087916,,
331.596,5.4924173,,
335.256,0.8401414,,
345.138,-9.539177,,
318.41998,-21.549557,,
316.956,-27.912846,,
332.328,-22.61558,,
331.596,-5.392779,,
342.21,16.99098,,
342.21,33.95957,,
338.916,37.100117,,
342.576,25.156895,,
342.21,4.8055964,,
342.576,-13.341133,,
325.008,-20.991518,,
333.792,-16.799685,,
340.38,-6.577262,,
340.746,0.8842368,,
346.602,-0.32449242,,
333.792,-9.34214,,
324.642,-19.027212,,
338.184,-20.569393,,
336.72,-9.435235,,
340.014,11.069175,,
345.138,31.045288,,
341.844,39.59224,,
335.988,31.444544,,
343.30798,10.444513,,
330.86398,-12.5492525,,
335.622,-26.144245,,
327.57,-25.138765,,
320.25,-13.122839,,
344.406,0.5813635,,
342.21,7.2844005,,
345.504,4.1450047,,
324.642,-5.0261965,,
344.406,-13.224761,,
334.158,-14.942708,,
329.034,-8.840286,,
339.28198,2.6410167,,
347.33398,15.326408,,
344.04,25.027185,,
338.916,28.280312,,
325.008,22.942734,,
341.478,9.398387,,
343.30798,-8.340077,,
319.152,-23.361338,,
314.76,-29.131765,,
340.014,-23.585627,,
315.492,-10.811441,,
342.21,1.5337415,,
340.014,7.510693,,
338.916,6.7825418,,
331.23,3.908316,,
344.04,3.7180152,,
342.21,6.8961763,,
342.576,9.71999,,
341.112,8.083778,,
340.746,1.9266983,,
342.21,-4.2579937,,
337.452,-5.4808745,,
335.988,-1.1100128,,
326.106,4.205391,,
343.30798,4.6922107,,
339.648,-1.0236945,,
327.204,-8.281752,,
323.544,-10.461336,,
315.858,-5.226215,,
342.942,2.8857684,,
327.204,6.237803,,
335.622,1.1068977,,
324.642,-8.408089,,
320.616,-13.410756,,
321.348,-7.837952,,
346.968,5.913145,,
340.746,18.438896,,
343.674,20.834814,,
321.714,11.921439,,
346.236,-0.9411459,,
325.74,-8.065766,,
344.04,-5.328508,,
345.504,2.8538425,,
337.818,7.6557093,,
316.224,3.2596185,,
342.21,-8.688672,,
335.988,-20.842127,,
331.962,-25.966404,,
316.59,-21.646793,,
337.086,-10.478429,,
319.152,3.256876,,
344.406,16.603224,,
344.772,27.969507,,
331.596,35.129314,,
345.504,34.38797,,
333.426,22.803122,,
338.184,1.8183053,,
325.374,-21.442945,,
325.74,-37.368347,,
333.426,-39.66277,,
334.158,-29.224367,,
315.858,-12.8759165,,
348.798,1.9460433,,
343.30798,11.996645,,
342.942,18.579765,,
349.896,23.683361,,
334.524,26.060658,,
340.38,21.466022,,
341.478,7.247747,,
341.478,-12.940509,,
323.544,-29.258429,,
319.884,-31.649548,,
331.962,-17.41567,,
336.72,5.793717,,
338.916,24.467947,,
346.968,28.166636,,
327.204,16.26157,,
335.622,-2.4135368,,
333.06,-16.325802,,
318.786,-18.96357,,
343.30798,-11.896311,,
325.008,-1.787721,,
334.158,5.236481,,
333.792,7.0947957,,
329.4,5.112588,,
344.772,1.186071,,
322.44598,-3.8124921,,
323.544,-9.001376,,
337.818,-11.707839,,
326.472,-7.911741,,
331.596,4.370736,,
339.28198,21.496387,,
340.014,34.295242,,
343.30798,33.15225,,
324.642,14.994529,,
344.406,-13.179341,,
315.126,-37.53404,,
324.642,-45.69492,,
317.688,-34.42713,,
323.178,-11.306461,,
342.21,10.635439,,
333.426,21.282782,,
340.746,18.96599,,
313.296,9.8069935,,
338.184,2.2016935,,
340.014,0.9385996,,
325.008,4.994229,,
338.916,9.770122,,
330.86398,11.248964,,
348.432,8.663704,,
327.204,4.0548844,,
338.916,-0.23399062,,
346.968,-3.6690319,,
335.256,-7.5266466,,
328.302,-13.049992,,
330.86398,-19.553793,,
330.86398,-24.191513,,
319.152,-23.637938,,
342.21,-16.36389,,
322.08,-3.7453258,,
317.322,10.756064,,
323.544,23.540361,,
339.648,32.319336,,
345.87,36.051964,,
322.08,33.87217,,
316.59,24.584175,,
338.916,7.829788,,
323.544,-13.748833,,
327.57,-33.57652,,
325.374,-43.34962,,
319.152,-37.902126,,
325.008,-19.547426,,
348.432,1.8707632,,
335.622,14.380552,,
338.55,11.698203,,
328.302,-2.0737717,,
332.694,-14.789749,,
324.276,-14.590289,,
317.688,1.5277209,,
331.962,25.229275,,
342.21,42.463703,,
333.792,43.139587,,
324.276,27.713598,,
329.766,5.963076,,
320.982,-10.73444,,
325.74,-17.395752,,
339.648,-17.614006,,
322.812,-18.77388,,
328.302,-24.765717,,
319.152,-32.40069,,
342.21,-34.317234,,
315.126,-25.614872,,
345.87,-8.42704,,
319.518,9.434059,,
325.374,20.534666,,
339.28198,23.436195,,
324.642,23.20618,,
326.472,26.486258,,
334.88998,35.257374,,
327.57,44.40333,,
340.38,45.00188,,
343.30798,30.734884,,
332.328,2.5867174,,
341.112,-31.36409,,
337.086,-60.416668,,
335.256,-76.50282,,
340.38,-76.90343,,
345.504,-63.59413,,
364.536,-40.825546,,
353.922,-13.073801,,
379.908,15.742,,
366.732,42.285595,,
366.732,63.84329,,
377.712,78.43522,,
379.542,84.5626,,
352.092,80.61201,,
361.974,64.75147,,
352.458,36.10764,,
327.204,-3.2307172,,
323.178,-47.121204,,
304.878,-86.68813,,
316.956,-113.60951,,
289.872,-123.00784,,
296.46,-113.787315,,
295.728,-86.75796,,
301.95,-43.312935,,
323.178,13.024117,,
327.57,73.375694,,
325.008,123.0692,,
330.86398,147.42657,,
325.008,141.48454,,
329.4,115.54724,,
319.518,89.006035,,
334.88998,73.60321,,
325.008,58.34206,,
330.132,11.445143,,
321.714,-95.52541,,
313.662,-254.70789,,
301.218,-405.851,,
284.016,-456.73245,,
333.792,-335.79532,,
429.318,-46.57402,,
516.06,314.53925,,
610.854,596.3195,,
604.998,669.7049,604.998,15
550.098,498.8644,,
447.25198,162.06476,,
341.844,-191.35675,,
266.448,-421.30234,,
226.188,-465.36322,,
219.59999,-356.4785,,
240.828,-185.6553,,
255.468,-40.11646,,
262.056,41.639446,,
260.592,73.80357,,
262.788,93.02232,,
272.66998,122.13196,,
273.036,154.48967,,
296.826,165.59221,,
300.12,137.49527,,
305.97598,74.75407,,
291.336,0.9105992,,
307.074,-58.574978,,
281.088,-91.6048,,
301.58398,-101.76475,,
316.59,-98.879074,,
308.904,-88.305115,,
318.786,-68.49943,,
318.786,-37.350655,,
315.126,0.51339334,,
335.988,33.519955,,
319.518,50.805622,,
331.962,50.715267,,
311.1,42.068893,,
314.02798,36.60192,,
324.276,39.002308,,
314.39398,43.239834,,
333.792,38.386486,,
315.492,18.802303,,
334.88998,-10.197121,,
323.178,-36.01737,,
334.158,-48.456,,
313.296,-46.964916,,
345.504,-39.494488,,
354.654,-34.419037,,
342.576,-32.937107,,
348.066,-28.553158,,
348.066,-13.770571,,
373.32,12.125268,,
375.882,40.94138,,
391.254,60.688725,,
380.63998,63.42921,,
393.08398,49.634174,,
404.064,26.44949,,
380.274,2.438664,,
390.888,-16.56967,,
392.352,-28.200224,,
390.522,-32.18619,,
398.208,-29.605705,,
383.202,-23.34997,,
374.052,-17.953815,,
379.176,-17.077587,,
372.222,-19.87748,,
351.36,-19.98505,,
347.69998,-9.585851,,
320.25,13.469434,,
339.648,41.338615,,
321.348,59.348175,,
316.956,55.528313,,
301.58398,29.6576,,
279.99,-5.4795203,,
269.01,-32.15056,,
265.35,-39.209667,,
285.48,-28.503595,,
264.984,-11.727338,,
284.382,-0.8748373,,
292.434,-0.052998476,,
276.33,-4.528769,,
277.794,-6.5414968,,
305.97598,-2.2334802,,
289.872,5.894526,,
314.02798,12.066699,,
292.068,12.314687,,
299.022,7.15829,,
295.728,0.38611495,,
319.152,-4.106798,,
317.322,-4.5304503,,
301.58398,-1.3329982,,
303.048,3.7442656,,
325.374,8.3520355,,
321.714,9.901044,,
332.328,6.4951286,,
325.008,-1.4363499,,
316.956,-10.244631,,
316.59,-14.614306,,
335.988,-11.32205,,
325.374,-2.4067764,,
337.452,5.447068,,
316.224,5.7249002,,
337.818,-2.3618405,,
316.224,-12.384504,,
314.39398,-15.184142,,
338.184,-6.209098,,
327.57,10.260767,,
317.322,23.824213,,
337.452,25.78229,,
338.55,15.820188,,
319.884,1.9902074,,
331.596,-6.09224,,
319.518,-5.2010036,,
343.674,-0.8682936,,
330.86398,-2.0469227,,
320.25,-12.488411,,
321.714,-26.248472,,
336.72,-31.54003,,
315.492,-20.275517,,
335.622,4.314234,,
337.452,28.482315,,
334.158,37.22426,,
325.008,25.269203,,
337.452,1.397674,,
325.008,-17.490982,,
318.41998,-18.434746,,
332.328,-1.7663059,,
317.322,19.146553,,
346.236,27.618204,,
344.772,15.722535,,
323.178,-10.016609,,
314.39398,-33.294518,,
319.152,-39.46936,,
340.746,-25.454264,,
319.518,-1.1667624,,
335.988,18.02761,,
322.812,22.029549,,
341.478,12.178747,,
315.126,-1.0390894,,
326.106,-6.3782353,,
313.296,0.14398342,,
319.518,13.149222,,
343.674,22.523859,,
311.832,20.769907,,
323.178,7.716647,,
317.688,-10.159305,,
324.276,-24.421839,,
318.786,-29.563282,,
321.714,-25.024454,,
323.544,-13.998862,,
331.962,-0.8981136,,
338.184,10.488126,,
344.04,17.561874,,
339.28198,18.985258,,
335.256,15.0092,,
335.988,7.797991,,
342.576,0.8267513,,
340.014,-2.9397838,,
318.054,-2.9952552,,
338.55,-1.6364224,,
332.328,-2.015939,,
338.916,-5.238872,,
316.956,-9.004561,,
322.812,-9.297987,,
346.968,-4.057265,,
322.812,4.2497945,,
334.158,9.702126,,
322.08,7.3376665,,
348.066,-2.4001327,,
322.812,-12.971352,,
318.054,-15.908287,,
339.28198,-7.0728183,,
331.962,9.700628,,
334.158,24.56585,,
347.33398,28.06792,,
316.59,17.456663,,
342.942,-1.5698929,,
322.08,-18.765717,,
321.714,-25.882193,,
319.884,-21.230297,,
325.374,-9.496537,,
328.302,2.2983174,,
335.988,9.29384,,
331.23,10.686322,,
318.054,8.49144,,
343.674,5.028541,,
334.88998,1.4158599,,
315.492,-2.1121085,,
342.942,-5.0449796,,
328.302,-6.108559,,
339.28198,-4.025365,,
320.982,1.2103486,,
345.504,7.737136,,
338.55,12.467255,,
333.792,12.546984,,
340.38,6.7775087,,
325.74,-3.621117,,
336.72,-15.105773,,
319.152,-22.81222,,
340.38,-22.446627,,
312.564,-12.6298685,,
337.086,3.4895263,,
343.674,18.836077,,
338.916,25.744354,,
320.25,20.56052,,
342.21,6.489896,,
336.72,-7.8026166,,
327.204,-13.5760765,,
321.714,-7.9811425,,
344.772,3.7256627,,
329.034,11.682547,,
339.28198,8.444993,,
330.498,-5.4349756,,
336.354,-21.36755,,
319.518,-28.354311,,
331.596,-20.355211,,
325.008,-0.33319026,,
341.112,21.572794,,
346.602,34.203655,,
342.576,31.677547,,
325.374,16.070887,,
325.374,-4.5411396,,
326.83798,-20.862507,,
337.086,-26.962006,,
317.322,-22.38562,,
332.328,-11.22542,,
322.44598,0.8418715,,
337.452,9.694069,,
337.818,14.311063,,
348.066,15.950456,,
341.844,15.746773,,
319.884,12.818056,,
336.72,4.834233,,
351.72598,-8.922979,,
332.328,-24.49904,,
316.59,-33.561775,,
323.544,-28.238789,,
345.504,-7.6612434,,
342.942,19.13597,,
337.818,37.510128,,
339.648,36.7732,,
343.674,18.162054,,
335.988,-5.4482994,,
317.688,-18.744385,,
337.818,-15.386471,,
325.74,-2.516091,,
330.86398,5.6012697,,
340.38,-0.16308327,,
311.832,-15.809603,,
343.30798,-27.387037,,
318.41998,-22.865189,,
316.59,-2.665155,,
340.746,20.258018,,
345.504,30.980326,,
341.844,24.75104,,
315.858,10.184541,,
318.786,0.7978242,,
344.772,2.5253584,,
339.28198,8.506805,,
316.224,6.008927,,
315.858,-10.628511,,
323.178,-32.86309,,
330.86398,-43.652657,,
313.296,-31.66482,,
317.688,-1.7926241,,
344.04,27.495752,,
337.086,38.256428,,
339.648,26.935415,,
322.44598,6.3382144,,
344.406,-5.850566,,
323.178,-2.0749643,,
322.08,9.387515,,
346.968,12.711796,,
337.086,-0.60318524,,
318.41998,-23.280619,,
322.08,-37.616325,,
322.812,-30.16248,,
335.988,-3.3760042,,
337.818,25.489332,,
340.746,37.292034,,
342.942,25.208693,,
325.008,-0.8780196,,
324.276,-22.58229,,
334.88998,-26.62301,,
326.472,-13.186223,,
325.374,6.4170647,,
341.844,19.447079,,
339.28198,20.410736,,
323.544,12.57478,,
334.524,2.8356416,,
330.498,-4.46299,,
323.544,-9.52932,,
329.766,-14.296534,,
315.126,-18.45479,,
329.034,-18.501059,,
321.714,-10.748298,,
339.648,4.4705067,,
319.884,21.222593,,
348.066,30.691883,,
337.818,26.54018,,
327.57,9.33578,,
323.91,-12.918028,,
333.426,-28.702232,,
327.57,-29.289776,,
326.83798,-13.959073,,
330.498,8.9872875,,
342.576,26.422655,,
337.452,27.889204,,
345.138,12.139205,,
329.4,-11.555552,,
320.25,-28.742958,,
325.374,-28.826996,,
328.302,-11.942083,,
341.844,11.168087,,
341.844,26.383892,,
343.30798,25.534266,,
313.296,11.215434,,
341.478,-6.0895147,,
346.602,-15.963591,,
319.518,-14.838568,,
319.884,-6.806269,,
345.138,1.2071531,,
332.328,5.163511,,
330.132,5.7531576,,
338.55,5.612205,,
341.112,5.433561,,
318.054,3.1153705,,
338.184,-3.2787611,,
331.962,-11.976212,,
322.812,-17.358631,,
348.798,-14.003497,,
315.126,-1.5451227,,
345.504,14.08724,,
341.844,24.436434,,
343.30798,24.272978,,
348.798,14.645126,,
337.452,1.0667902,,
335.622,-11.006258,,
330.132,-19.207907,,
330.498,-23.571205,,
344.04,-23.782188,,
337.818,-17.981623,,
324.276,-4.831757,,
338.916,13.189897,,
339.648,29.08776,,
349.53,34.921425,,
333.792,27.22423,,
343.30798,9.724108,,
316.59,-9.106689,,
320.982,-21.699348,,
334.158,-25.563072,,
316.59,-22.882435,,
335.988,-16.738329,,
323.544,-8.083239,,
341.844,3.590534,,
322.08,16.999662,,
346.236,27.20717,,
346.236,27.910568,,
349.164,16.470545,,
323.178,-2.8031201,,
318.054,-20.476873,,
345.504,-27.902002,,
316.224,-22.576042,,
339.28198,-8.866795,,
334.88998,5.8861017,,
316.956,16.114878,,
347.69998,19.846638,,
337.452,17.281755,,
323.91,9.004868,,
319.884,-3.5941443,,
344.772,-16.437834,,
315.858,-22.75858,,
316.59,-17.000166,,
343.674,-0.29562134,,
326.106,17.794802,,
342.21,24.55985,,
344.406,13.649906,,
326.83798,-8.690428,,
318.786,-26.72648,,
326.106,-26.462118,,
342.576,-6.6098437,,
342.942,19.693161,,
325.374,34.35363,,
338.55,27.784592,,
339.648,5.7248335,,
334.88998,-15.887117,,
312.564,-23.552437,,
330.498,-15.985033,,
322.812,-3.416575,,
345.87,2.2112613,,
325.374,-2.5902307,,
321.348,-10.786063,,
326.472,-11.916265,,
343.674,-1.6494111,,
333.06,14.491908,,
333.792,25.938425,,
330.86398,25.674261,,
346.236,15.1124,,
336.354,1.6415285,,
315.858,-8.112158,,
340.014,-12.932434,,
323.91,-15.830746,,
316.956,-19.037354,,
340.014,-20.574245,,
325.374,-15.928583,,
341.844,-3.2082105,,
317.688,13.315577,,
346.968,25.020287,,
344.772,25.011,,
347.69998,13.499123,,
334.524,-2.0058322,,
325.374,-11.90543,,
327.204,-11.055245,,
342.21,-1.79816,,
350.994,8.327457,,
332.328,11.997617,,
327.57,6.609872,,
316.956,-4.7914567,,
342.576,-15.999982,,
328.668,-21.377796,,
317.322,-18.590729,,
318.786,-9.279558,,
321.348,2.202848,,
343.30798,11.188706,,
322.812,15.0984745,,
327.204,14.59356,,
342.942,12.637025,,
322.08,11.854434,,
339.648,12.038918,,
341.112,9.97945,,
320.982,2.2229445,,
340.38,-11.169793,,
344.406,-25.136429,,
322.812,-32.20983,,
320.616,-27.648258,,
340.014,-13.104921,,
340.014,4.2987466,,
347.69998,16.916075,,
336.72,21.533855,,
330.86398,20.342203,,
336.354,17.465382,,
342.942,14.560719,,
323.544,9.703779,,
334.524,0.5218006,,
322.08,-11.679396,,
320.616,-21.212269,,
320.25,-22.016056,,
322.44598,-13.06609,,
344.772,-0.14969034,,
314.02798,8.078023,,
338.184,6.763247,,
330.86398,-1.3462098,,
339.28198,-8.235565,,
320.25,-7.129951,,
338.184,2.2620492,,
341.112,13.900962,,
344.04,20.354671,,
333.792,18.074732,,
329.4,8.907963,,
346.236,-2.4635699,,
324.642,-12.022543,,
323.178,-17.747278,,
336.354,-18.635254,,
319.152,-13.819577,,
321.348,-3.6049716,,
348.798,8.657531,,
317.322,16.786283,,
346.968,15.40173,,
315.492,4.555373,,
325.374,-9.045973,,
328.302,-16.282528,,
337.818,-12.439738,,
315.858,-0.83382356,,
325.008,10.157277,,
342.576,14.196575,,
337.818,11.811491,,
318.786,8.494479,,
339.648,8.03081,,
337.818,7.8373866,,
318.41998,1.4560088,,
323.91,-13.659609,,
328.668,-30.746801,,
320.982,-37.076733,,
325.374,-24.440779,,
316.59,2.2432487,,
335.988,26.782923,,
338.55,33.824203,,
338.55,21.433216,,
328.302,2.9223611,,
316.224,-4.503975,,
340.014,5.0042567,,
323.91,20.1891,,
344.04,22.089392,,
330.498,1.0736006,,
322.08,-33.121162,,
313.662,-57.42818,,
323.91,-53.050426,,
326.472,-20.226748,,
342.21,21.801577,,
347.69998,49.11553,,
336.354,49.678547,,
348.432,29.259945,,
342.576,3.7685986,,
319.884,-13.666002,,
318.786,-19.743246,,
329.766,-18.237722,,
330.86398,-12.971468,,
330.86398,-4.704102,,
321.714,5.7677493,,
316.224,13.654758,,
335.256,11.859965,,
331.962,-1.8098875,,
315.858,-19.338984,,
312.564,-26.34963,,
322.812,-13.860456,,
334.88998,12.093043,,
326.106,32.921898,,
342.21,31.82317,,
330.86398,8.417471,,
336.72,-19.55032,,
320.25,-30.104078,,
325.74,-15.302541,,
337.818,11.885294,,
345.504,28.41262,,
348.066,20.595612,,
340.746,-4.590684,,
320.25,-26.015036,,
319.152,-26.740091,,
338.184,-8.075008,,
344.04,12.614462,,
340.38,17.71886,,
327.936,4.4738035,,
319.518,-13.640042,,
325.008,-19.478867,,
324.642,-6.9578843,,
347.69998,14.804447,,
330.86398,30.284935,,
326.106,30.226234,,
338.55,16.9639,,
318.054,-0.6287827,,
337.086,-15.750492,,
324.642,-26.954863,,
316.59,-34.205833,,
318.786,-34.037003,,
323.178,-20.957226,,
341.844,5.161249,,
339.28198,33.746506,,
335.256,47.866863,,
345.87,36.839546,,
339.28198,6.582869,,
319.884,-22.624043,,
322.44598,-30.919579,,
339.648,-14.576391,,
318.054,10.817551,,
343.674,23.009892,,
340.38,11.29376,,
326.106,-14.921265,,
316.956,-34.1824,,
316.59,-30.601051,,
332.694,-6.19349,,
344.406,21.704302,,
342.942,34.668915,,
318.41998,26.609749,,
346.968,6.0179377,,
316.956,-12.82908,,
342.942,-20.668283,,
321.348,-17.213545,,
341.844,-7.263297,,
323.544,4.875421,,
348.432,16.618837,,
339.648,24.295649,,
349.53,21.83843,,
332.694,4.924072,,
337.818,-22.29997,,
322.812,-45.438465,,
312.93,-47.505764,,
343.674,-21.802761,,
334.158,20.42095,,
344.04,55.18816,,
341.478,61.396873,,
344.772,35.3711,,
322.812,-6.7910404,,
314.39398,-40.700176,,
314.39398,-49.8966,,
321.714,-34.74053,,
324.276,-8.688423,,
320.616,13.130857,,
346.236,23.2244,,
327.57,22.849648,,
339.28198,16.801678,,
323.178,8.390121,,
334.88998,-1.0500855,,
338.916,-9.553407,,
320.25,-13.446775,,
332.694,-10.052975,,
318.41998,-1.4484357,,
339.648,5.4838414,,
341.112,4.1500793,,
322.08,-5.5268073,,
315.126,-15.7541065,,
315.492,-16.520063,,
337.452,-3.983869,,
334.158,15.569128,,
329.766,29.877487,,
321.714,29.720789,,
326.472,15.445633,,
338.916,-4.050436,,
327.57,-18.417833,,
317.688,-22.769087,,
315.492,-19.109375,,
326.472,-12.36494,,
346.968,-5.6503997,,
334.88998,0.8701827,,
328.302,7.468375,,
328.302,12.36662,,
344.04,12.508174,,
341.844,6.9080544,,
344.406,-1.206157,,
322.812,-6.2728534,,
326.472,-4.970014,,
337.818,0.8693787,,
347.69998,6.0277953,,
339.28198,6.8270726,,
323.178,4.389213,,
338.184,2.8637443,,
342.942,4.2638083,,
323.91,5.265093,,
340.746,-0.16546337,,
336.354,-14.093236,,
319.884,-30.197132,,
318.786,-36.681133,,
323.544,-25.201345,,
337.452,1.4142786,,
338.55,29.66873,,
343.30798,44.499084,,
337.452,39.907875,,
328.668,22.456503,,
335.622,4.878884,,
339.648,-4.5201125,,
326.106,-7.5131574,,
318.786,-12.025113,,
340.38,-22.625727,,
321.348,-34.45648,,
322.44598,-36.521595,,
327.57,-21.758202,,
346.968,5.0811577,,
335.988,29.190968,,
341.112,36.352333,,
337.818,23.867933,,
342.942,2.655423,,
325.74,-11.362409,,
325.374,-9.53316,,
344.772,3.5559068,,
323.178,14.939563,,
339.648,14.4257,,
325.74,2.54579,,
340.746,-10.98659,,
320.25,-16.279394,,
322.44598,-11.538268,,
338.916,-3.5898724,,
322.08,-0.7860252,,
341.478,-5.1111984,,
314.76,-10.698527,,
336.354,-9.896931,,
332.694,-1.0707945,,
324.642,9.292062,,
333.792,12.400655,,
331.596,5.787,,
336.72,-3.30753,,
330.86398,-3.5429735,,
318.054,10.106878,,
347.69998,30.070517,,
342.21,40.15657,,
349.164,27.627125,,
325.374,-5.819327,,
313.662,-43.155754,,
329.4,-62.71432,,
314.39398,-52.956326,,
342.576,-20.473875,,
318.054,14.680464,,
341.844,32.838993,,
342.576,27.614872,,
333.426,8.785307,,
311.1,-6.2382445,,
337.818,-5.4813194,,
320.616,9.614685,,
335.256,26.53768,,
336.72,31.771208,,
326.106,20.668104,,
324.276,0.05920448,,
338.916,-17.621925,,
320.25,-23.701185,,
327.57,-19.020323,,
327.936,-12.156503,,
333.06,-11.908444,,
344.04,-19.908485,,
319.884,-28.874022,,
324.276,-27.78847,,
340.746,-10.328421,,
337.452,19.44016,,
342.942,48.23569,,
347.33398,61.115196,,
341.844,50.62339,,
342.21,21.615795,,
320.25,-11.411529,,
324.276,-32.82376,,
317.322,-34.785038,,
338.55,-21.053741,,
319.884,-3.5212061,,
347.69998,5.8679495,,
322.44598,2.3564506,,
342.576,-9.723692,,
325.74,-20.986004,,
324.276,-23.590263,,
344.772,-15.775999,,
326.472,-1.7706214,,
325.374,11.939772,,
333.06,20.737438,,
341.112,23.64942,,
346.968,22.384228,,
319.152,19.259356,,
318.41998,15.808764,,
342.576,12.534972,,
341.112,9.103603,,
323.91,4.40589,,
339.28198,-3.146654,,
316.956,-14.429558,,
345.504,-27.868832,,
316.59,-38.824352,,
325.74,-41.579468,,
335.622,-33.273083,,
323.91,-16.749884,,
324.642,0.6745692,,
339.648,12.400456,,
319.518,17.700468,,
336.354,22.04887,,
323.91,31.53503,,
336.72,45.76457,,
339.28198,55.88469,,
332.328,50.608974,,
327.936,26.000788,,
342.942,-9.413701,,
334.158,-39.51127,,
327.936,-52.277863,,
336.72,-48.70062,,
347.33398,-40.867115,,
348.798,-40.409294,,
353.556,-47.229176,,
358.68,-48.794453,,
349.53,-31.26087,,
358.68,7.0440884,,
378.81,51.895443,,
370.758,83.03603,,
371.49,89.33975,,
379.542,76.012344,,
357.582,57.59992,,
340.746,43.482903,,
361.608,29.495956,,
335.988,3.6653094,,
328.302,-39.254265,,
330.86398,-88.39935,,
294.264,-122.174805,,
308.538,-124.34786,,
305.61,-96.54253,,
306.708,-55.76087,,
315.858,-19.294403,,
325.374,8.891759,,
306.342,37.764153,,
309.27,75.87282,,
318.054,118.78745,,
335.988,150.27249,,
314.39398,156.21317,,
329.766,136.66241,,
330.86398,102.29695,,
317.688,57.583595,,
312.198,-10.914753,,
330.86398,-123.620346,,
298.656,-277.37186,,
274.134,-421.15372,,
301.95,-467.05005,,
344.406,-340.97772,,
426.024,-43.0468,,
525.576,328.48044,,
611.586,615.9202,,
621.834,686.0967,621.834,15
572.058,506.8651,,
443.592,165.32639,,
338.55,-184.26141,,
279.258,-407.26224,,
229.116,-453.42142,,
229.84799,-362.62012,,
228.018,-218.21175,,
243.39,-88.26342,,
249.978,4.4671545,,
259.86,71.71462,,
279.624,128.23317,,
288.408,170.65752,,
273.036,182.14386,,
292.8,153.04236,,
298.656,95.14026,,
287.31,35.63906,,
309.27,-3.1174839,,
289.506,-19.493261,,
319.152,-30.17585,,
299.388,-52.425404,,
319.884,-86.99069,,
305.97598,-116.321335,,
292.8,-118.94203,,
300.486,-87.23494,,
324.642,-33.813217,,
308.904,17.982885,,
331.23,50.710262,,
315.492,62.8412,,
334.158,65.11907,,
323.91,68.01185,,
316.224,71.81496,,
337.452,67.551994,,
335.622,46.897354,,
311.832,11.682057,,
330.498,-25.58852,,
336.354,-50.622463,,
320.25,-57.865803,,
319.152,-53.60661,,
346.236,-49.09699,,
351.72598,-49.751022,,
334.88998,-49.896523,,
354.288,-37.890873,,
348.432,-7.5410843,,
380.63998,33.884586,,
382.836,68.36893,,
394.548,79.22493,,
390.156,63.26656,,
382.836,33.23458,,
391.254,8.164585,,
394.548,-0.92011887,,
386.496,1.3716012,,
391.254,0.050987124,,
397.47598,-16.307638,,
377.346,-44.330307,,
371.124,-66.78817,,
361.242,-65.481186,,
363.072,-36.05467,,
360.51,7.126875,,
363.438,40.262196,,
353.556,46.655056,,
321.714,27.955183,,
312.93,1.7968686,,
305.61,-11.837507,,
302.682,-4.7795916,,
289.13998,15.066142,,
277.794,31.464056,,
299.754,32.442616,,
292.434,17.805445,,
270.108,-3.117333,,
280.356,-19.915892,,
286.944,-28.003042,,
269.742,-29.027386,,
276.69598,-26.321535,,
304.146,-20.9283,,
296.46,-12.026749,,
292.434,-0.3934889,,
288.042,9.765454,,
314.02798,13.465692,,
314.02798,9.926154,,
307.074,4.649905,,
301.95,5.549426,,
300.852,15.720944,,
325.374,29.27309,,
329.766,34.65454,,
309.636,23.551521,,
319.884,-1.7684458,,
307.074,-28.98626,,
305.244,-44.075157,,
315.858,-40.891796,,
327.936,-24.479935,,
311.466,-5.947262,,
320.982,6.232733,,
338.55,11.134213,,
333.792,13.100635,,
325.008,15.479888,,
327.57,16.821682,,
336.354,13.09022,,
318.41998,3.3304524,,
336.72,-7.289451,,
318.786,-10.733174,,
325.74,-3.2243361,,
318.054,10.265463,,
339.648,18.826828,,
334.158,14.051025,,
317.322,-2.777225,,
320.25,-20.969494,,
315.858,-28.349125,,
318.054,-20.55255,,
333.426,-4.240264,,
316.59,8.320802,,
338.55,8.895962,,
315.858,-0.50681174,,
325.74,-9.572615,,
333.792,-7.9950333,,
328.668,6.3632107,,
337.452,25.521673,,
340.014,36.788197,,
341.844,31.363937,,
340.746,10.149124,,
326.106,-16.811768,,
324.642,-36.36993,,
322.812,-39.688305,,
335.256,-26.6637,,
316.224,-5.2492676,,
337.086,13.412355,,
336.354,21.064615,,
322.08,16.327662,,
329.034,4.646883,,
322.44598,-5.510943,,
320.25,-7.8690634,,
320.982,-1.8595711,,
315.492,7.575354,,
341.112,13.572874,,
322.08,11.864272,,
327.57,3.2854846,,
327.57,-7.1329427,,
323.178,-13.569929,,
328.668,-12.915275,,
339.28198,-6.2746286,,
322.08,2.058614,,
337.086,7.1991777,,
342.21,6.3240976,,
322.812,0.19502313,,
333.06,-7.0734963,,
319.518,-10.086169,,
333.792,-5.432101,,
334.88998,5.4931836,,
319.152,16.254726,,
336.72,18.852972,,
330.86398,9.421058,,
321.714,-7.7844315,,
328.302,-21.859644,,
326.83798,-22.360435,,
330.86398,-7.4425993,,
335.256,13.448382,,
336.72,25.461578,,
346.236,19.249704,,
339.28198,-1.3338112,,
327.936,-21.307846,,
338.916,-25.562338,,
315.492,-10.549629,,
342.576,12.64701,,
340.014,26.603676,,
349.164,20.835867,,
316.224,-0.3914597,,
312.564,-21.741909,,
340.38,-28.678772,,
312.564,-17.850851,,
325.374,1.9010117,,
335.256,17.677137,,
343.674,22.237806,,
328.302,17.395662,,
330.86398,9.5459175,,
333.06,2.7905958,,
346.236,-3.5645995,,
338.916,-11.470128,,
316.224,-19.18431,,
335.988,-20.905771,,
346.968,-12.131338,,
326.83798,4.3670673,,
343.30798,18.468756,,
335.256,19.929684,,
343.674,7.2225366,,
324.642,-10.013178,,
317.322,-17.91078,,
322.08,-9.522769,,
341.478,9.098326,,
333.792,23.292732,,
322.44598,21.3683,,
331.596,3.9701638,,
322.44598,-16.383266,,
322.08,-25.121817,,
346.236,-16.764149,,
318.054,1.420997,,
342.576,15.648177,,
340.014,16.236006,,
342.942,4.170566,,
340.014,-10.843211,,
337.818,-18.27078,,
322.812,-13.908528,,
345.87,-1.3481898,,
344.406,11.976131,,
343.30798,19.932816,,
331.596,20.132568,,
345.138,13.189111,,
331.962,1.1545329,,
323.544,-12.786677,,
335.988,-23.787872,,
320.982,-26.115118,,
327.204,-16.278131,,
330.132,3.3162534,,
342.576,23.680817,,
343.30798,33.41461,,
340.38,25.727287,,
342.942,3.4898996,,
322.812,-21.675493,,
319.152,-36.12442,,
344.406,-32.35409,,
342.576,-13.180847,,
320.616,10.595309,,
342.576,27.054342,,
344.04,29.807537,,
345.504,20.446478,,
337.086,6.061073,,
320.982,-5.748503,,
326.106,-10.959566,,
329.766,-10.240047,,
333.06,-7.2243757,,
321.714,-5.5916348,,
340.746,-6.7624526,,
315.492,-9.282094,,
330.498,-9.979056,,
330.498,-6.1836123,,
345.504,2.2162144,,
334.88998,12.149218,,
327.936,18.78885,,
346.968,18.412832,,
341.478,10.931502,,
333.792,0.2436208,,
339.28198,-8.079862,,
317.688,-10.329276,,
341.112,-6.9097204,,
329.034,-1.6709745,,
336.354,1.1159508,,
322.08,-0.24311385,,
329.034,-4.143081,,
320.25,-7.50654,,
335.256,-8.324431,,
318.41998,-6.6847525,,
316.956,-3.6919346,,
337.818,0.24003638,,
312.93,5.7067256,,
331.596,12.783485,,
343.674,19.315851,,
326.472,21.236916,,
318.054,15.340371,,
337.818,2.396469,,
327.57,-12.324051,,
329.4,-22.110628,,
321.714,-23.29409,,
323.544,-17.492804,,
325.008,-9.69702,,
338.184,-3.8560612,,
339.28198,0.11352493,,
325.008,5.219601,,
347.69998,13.262375,,
322.44598,21.660587,,
345.138,24.530884,,
342.576,17.498993,,
338.916,2.1552124,,
322.08,-13.958316,,
325.74,-22.251295,,
334.524,-19.08836,,
320.25,-8.088794,,
347.69998,2.9850426,,
337.818,7.9950895,,
331.962,6.1567154,,
325.008,1.1662052,,
342.576,-2.7513037,,
345.138,-4.0345564,,
329.766,-3.7167602,,
336.72,-3.0012763,,
337.452,-1.4913276,,
342.21,2.0244148,,
341.844,7.3107095,,
337.818,11.742946,,
351.36,12.132582,,
328.302,7.732996,,
346.236,1.2786268,,
323.178,-3.38195,,
346.968,-5.025541,,
325.374,-6.362709,,
323.178,-11.095435,,
323.544,-19.083887,,
333.792,-24.410387,,
320.25,-19.13654,,
319.152,-0.4666305,,
341.844,24.699118,,
330.132,42.546234,,
345.138,41.441513,,
341.844,20.752707,,
326.83798,-7.7257886,,
315.858,-27.492496,,
324.642,-28.78825,,
343.30798,-15.178946,,
341.112,-0.195627,,
325.74,3.458058,,
336.72,-6.122885,,
327.57,-18.570166,,
337.086,-19.483355,,
343.674,-2.2142115,,
333.426,25.73607,,
348.432,46.757244,,
340.014,45.06069,,
346.236,18.173622,,
327.57,-20.194979,,
323.91,-48.21995,,
320.25,-49.75861,,
330.86398,-24.719229,,
340.38,10.926529,,
341.844,35.51323,,
346.236,35.543266,,
349.53,13.865179,,
333.792,-13.115506,,
331.596,-27.031862,,
327.204,-19.876003,,
341.844,1.3456557,,
339.28198,20.492044,,
349.164,24.12985,,
337.086,10.723055,,
319.884,-9.206776,,
318.786,-21.52738,,
340.746,-18.872854,,
315.858,-5.2151976,,
341.112,8.317973,,
326.106,12.534533,,
314.02798,6.838811,,
334.158,-1.4859213,,
341.478,-4.179756,,
319.152,0.945294,,
337.818,8.568532,,
325.008,10.85329,,
343.674,4.340203,,
321.348,-7.1177506,,
338.916,-15.631065,,
341.112,-15.707294,,
319.152,-8.318388,,
333.792,0.6032132,,
333.426,5.5336504,,
342.942,5.709645,,
348.432,4.797362,,
318.786,6.5618944,,
334.158,10.754457,,
340.38,13.058122,,
339.648,9.114783,,
340.014,-1.0866799,,
322.44598,-12.491928,,
337.452,-18.642357,,
323.91,-16.536629,,
331.596,-8.5515,,
341.844,-0.014789206,,
346.236,5.1340327,,
316.956,6.7121468,,
340.38,6.9511647,,
328.668,7.2912245,,
342.942,6.7654967,,
325.374,3.5932806,,
320.982,-1.8257746,,
318.41998,-5.947515,,
342.21,-4.7207623,,
315.126,2.2604342,,
322.812,10.1093,,
326.106,11.685274,,
337.818,3.3426092,,
323.544,-11.33766,,
319.518,-23.272507,,
314.39398,-24.106676,,
338.916,-12.232647,,
341.478,6.0090837,,
331.23,20.704857,,
339.648,24.787674,,
340.746,17.79093,,
336.354,4.836305,,
339.648,-7.4048467,,
317.322,-14.289455,,
335.622,-14.261645,,
326.83798,-8.059867,,
338.184,2.020968,,
319.518,12.086249,,
342.942,17.003872,,
322.44598,12.577765,,
340.746,-1.0797427,,
322.08,-17.802069,,
318.786,-27.832327,,
325.74,-23.915993,,
338.184,-6.8904085,,
334.88998,13.8868685,,
346.236,26.378006,,
343.30798,24.060299,,
333.792,10.318487,,
344.406,-4.4231853,,
333.792,-10.6216,,
345.504,-6.382429,,
326.472,2.10042,,
343.674,6.383546,,
334.88998,2.7940736,,
345.138,-5.14191,,
323.544,-10.499047,,
323.178,-9.304259,,
344.406,-3.8087397,,
326.472,0.011393319,,
342.21,-1.7202331,,
320.616,-6.9175825,,
317.688,-9.089491,,
341.844,-2.9962595,,
349.53,10.443904,,
327.936,24.15042,,
325.008,29.759535,,
343.30798,23.401743,,
342.942,7.9354477,,
332.694,-9.620234,,
318.054,-22.84092,,
326.83798,-28.96304,,
315.126,-28.482086,,
337.452,-22.749517,,
326.83798,-12.438345,,
330.86398,1.7181563,,
343.674,17.154106,,
323.178,29.086678,,
346.968,32.59344,,
348.432,25.750395,,
322.812,11.239096,,
341.112,-4.9815316,,
330.86398,-16.951416,,
324.642,-21.547813,,
318.054,-19.194471,,
338.55,-12.624566,,
341.112,-5.1025233,,
331.596,0.7997836,,
325.374,3.8219318,,
340.38,4.381278,,
320.25,4.4783797,,
346.968,6.4847493,,
345.504,10.920354,,
320.982,14.866677,,
345.138,13.130666,,
318.054,2.400439,,
326.106,-14.467232,,
342.576,-28.216291,,
327.57,-28.696432,,
318.41998,-12.819793,,
318.786,11.456989,,
342.942,29.403074,,
343.30798,29.82277,,
341.478,13.609004,,
315.492,-6.6988873,,
319.152,-16.622553,,
319.884,-11.138766,,
331.23,1.6691234,,
338.916,7.924707,,
316.59,0.18300724,,
321.714,-15.839936,,
325.374,-25.882763,,
318.054,-19.244427,,
321.714,1.9377052,,
338.916,24.107048,,
346.602,33.053226,,
330.86398,24.770117,,
323.178,7.427053,,
316.956,-6.530213,,
342.21,-10.669306,,
328.302,-8.293186,,
319.884,-7.12245,,
325.008,-10.737096,,
321.714,-15.087513,,
319.518,-13.115296,,
337.086,-2.6511288,,
324.276,10.310137,,
336.354,16.363861,,
326.106,11.17675,,
326.472,-0.25776982,,
325.74,-7.7278857,,
344.772,-4.707665,,
314.39398,5.9507475,,
349.53,14.6367855,,
332.328,13.475659,,
327.936,3.0286796,,
341.112,-8.665589,,
326.106,-13.51238,,
336.72,-10.269669,,
326.83798,-4.71922,,
340.014,-3.3103542,,
321.348,-6.565316,,
341.112,-8.631176,,
320.25,-3.44492,,
340.38,8.409307,,
335.988,18.94084,,
324.642,19.32316,,
344.04,8.085301,,
312.564,-6.684325,,
345.138,-13.645302,,
313.296,-7.879646,,
328.302,4.5732694,,
345.138,11.666526,,
333.06,5.871581,,
319.884,-8.779019,,
330.498,-19.555191,,
320.982,-15.818587,,
345.504,1.2819641,,
344.406,18.732216,,
326.106,21.837349,,
320.982,6.5591006,,
346.968,-16.304588,,
327.936,-28.983536,,
331.596,-20.64735,,
320.25,3.791907,,
343.30798,27.203505,,
339.28198,33.385223,,
340.746,19.340256,,
346.968,-3.0653555,,
317.688,-17.143646,,
320.982,-14.740593,,
331.23,-2.0275066,,
343.674,6.710601,,
344.406,1.766189,,
315.858,-13.560489,,
310.734,-25.762665,,
333.06,-22.64058,,
340.38,-3.7734737,,
326.83798,18.794937,,
321.714,30.123068,,
346.236,24.132923,,
326.472,7.8594775,,
319.884,-5.0533433,,
318.786,-5.847593,,
342.576,2.5778446,,
322.08,9.054502,,
325.74,4.4239597,,
319.884,-10.236986,,
334.524,-24.362225,,
323.544,-26.740383,,
320.25,-14.797887,,
340.38,3.427415,,
330.498,15.945009,,
341.844,16.191402,,
339.648,7.3320255,,
329.034,-1.5390276,,
331.962,-3.3471308,,
341.478,1.885662,,
334.88998,8.62984,,
333.792,11.673697,,
336.72,10.295446,,
334.524,7.1611924,,
345.87,3.8711643,,
322.08,-1.557595,,
325.74,-12.086231,,
342.21,-26.301672,,
320.982,-36.228325,,
315.858,-31.944256,,
334.88998,-10.228606,,
347.33398,20.224546,,
345.138,42.692238,,
327.57,43.703938,,
341.112,23.252821,,
337.452,-4.5315204,,
327.936,-21.425898,,
317.688,-18.332876,,
327.936,-1.378392,,
326.106,13.728704,,
334.88998,14.249383,,
334.88998,-0.261296,,
322.08,-18.867044,,
313.296,-28.736282,,
325.74,-24.808382,,
319.152,-11.966407,,
343.30798,0.92134047,,
340.746,8.851286,,
319.152,13.377638,,
342.942,18.557276,,
338.55,24.920494,,
339.648,27.703403,,
341.478,21.122715,,
333.426,4.544394,,
323.178,-15.436196,,
314.39398,-29.179998,,
325.374,-30.900032,,
326.106,-22.367823,,
319.518,-10.552053,,
322.44598,-1.6935163,,
322.08,2.895866,,
337.452,6.1083884,,
326.472,10.845274,,
320.982,16.617926,,
348.432,19.877848,,
325.008,17.255236,,
337.086,8.458822,,
342.942,-3.4969776,,
319.152,-14.2498455,,
323.544,-20.081491,,
337.452,-18.70789,,
341.112,-9.583379,,
332.694,5.152733,,
327.204,19.673151,,
337.818,25.633709,,
333.792,16.737686,,
337.452,-5.587175,,
315.126,-30.322124,,
317.322,-42.11146,,
315.126,-31.393845,,
318.41998,-2.1852741,,
346.968,29.202736,,
341.112,44.6869,,
348.432,36.78781,,
312.564,13.411332,,
348.432,-8.724561,,
326.83798,-16.77303,,
331.596,-10.500104,,
344.406,-0.521367,,
342.942,1.7361021,,
320.616,-6.462848,,
338.916,-17.891977,,
316.59,-22.534313,,
346.236,-16.284008,,
333.426,-3.635025,,
321.348,7.243272,,
323.178,11.822876,,
335.988,12.133456,,
328.302,13.179822,,
345.87,16.984713,,
322.08,20.275345,,
318.786,17.890417,,
328.668,8.258447,,
342.942,-4.6331053,,
323.544,-14.737324,,
319.884,-19.356419,,
326.83798,-20.948067,,
317.688,-23.404259,,
324.642,-26.544888,,
342.576,-24.722185,,
318.41998,-11.736996,,
332.328,11.981925,,
334.524,36.835564,,
344.772,49.48545,,
341.844,42.526295,,
342.942,20.449781,,
321.348,-3.3954072,,
321.348,-16.681007,,
323.544,-16.828806,,
335.988,-11.546305,,
320.25,-11.045216,,
336.72,-18.745722,,
319.152,-28.293573,,
312.198,-29.13864,,
339.28198,-15.70324,,
325.008,7.550836,,
343.30798,29.056305,,
341.478,38.273804,,
338.916,32.38527,,
319.518,16.807734,,
335.988,0.21720691,,
326.83798,-11.18309,,
343.30798,-15.884596,,
318.41998,-15.36297,,
312.198,-11.344076,,
341.112,-4.928283,,
345.504,2.3007307,,
342.21,7.430436,,
319.884,7.485264,,
339.28198,2.058566,,
344.406,-5.4109507,,
326.106,-9.616496,,
340.38,-7.50054,,
321.348,-1.0477606,,
332.694,4.012269,,
347.33398,2.9725225,,
315.126,-3.4237301,,
325.008,-8.818983,,
324.642,-5.9863267,,
343.674,6.9544125,,
318.41998,23.807915,,
344.406,33.620785,,
344.772,28.048288,,
316.956,7.5563064,,
341.112,-18.138779,,
317.688,-35.94176,,
324.276,-37.59669,,
344.04,-24.599566,,
316.59,-6.5064964,,
329.766,5.9872518,,
340.38,8.1957445,,
330.132,3.8193557,,
334.158,1.1259916,,
325.374,6.0206757,,
323.91,17.238462,,
327.936,27.159859,,
342.576,27.486744,,
337.452,15.452821,,
318.41998,-3.9859426,,
332.694,-21.379728,,
323.178,-28.820518,,
330.498,-24.385275,,
344.04,-12.214601,,
347.33398,1.0504532,,
343.674,10.287858,,
345.87,13.563443,,
350.994,11.169323,,
336.354,4.0061445,,
348.066,-6.675225,,
336.72,-18.117704,,
331.23,-25.353304,,
314.39398,-22.764643,,
331.596,-7.6607585,,
342.576,16.605978,,
334.88998,40.75576,,
344.772,53.643524,,
347.69998,48.12355,,
328.668,25.13666,,
329.034,-6.517796,,
339.28198,-34.57597,,
335.622,-49.29079,,
320.25,-47.723103,,
327.936,-34.253258,,
335.256,-17.361853,,
345.87,-4.6247597,,
341.844,1.2973294,,
337.086,3.4355736,,
327.57,7.5774374,,
331.23,17.401155,,
335.988,30.951439,,
345.87,41.20541,,
340.746,40.80136,,
320.616,27.755438,,
340.38,7.7120066,,
324.642,-9.543394,,
340.38,-17.133066,,
345.87,-16.260721,,
342.576,-15.024919,,
339.648,-21.32998,,
348.066,-35.462334,,
353.922,-48.691986,,
341.478,-49.5695,,
359.412,-33.046303,,
349.53,-4.8061156,,
360.876,23.005936,,
353.922,41.089,,
377.346,49.23197,,
355.386,54.01027,,
350.262,60.18813,,
368.928,64.06999,,
347.33398,55.571392,,
349.53,27.761208,,
342.576,-14.761697,,
318.054,-56.945618,,
333.792,-83.75,,
297.192,-90.95518,,
325.008,-86.28868,,
299.754,-79.48688,,
310.368,-70.65757,,
304.146,-48.84172,,
301.58398,-3.6265924,,
307.806,60.36049,,
333.06,120.83761,,
312.198,152.33148,,
320.25,146.58632,,
325.74,119.74847,,
311.466,96.68196,,
325.008,83.619354,,
333.792,54.437454,,
327.57,-31.508078,,
311.466,-187.98007,,
297.192,-369.0198,,
290.604,-477.18347,,
307.806,-417.61972,,
402.234,-166.05959,,
499.956,197.79234,,
594.018,520.82294,,
616.71,657.15405,616.71,15
571.692,548.9886,,
503.982,256.12125,,
375.15,-83.04236,,
308.904,-330.8233,,
249.612,-418.16702,,
226.554,-362.47424,,
252.54,-234.20316,,
251.076,-103.88757,,
253.272,-7.035421,,
260.958,56.57367,,
262.056,100.549706,,
277.062,130.92973,,
274.866,142.53381,,
285.48,129.75844,,
279.258,97.07823,,
302.682,58.100983,,
285.48,25.037374,,
306.342,-0.24016607,,
316.956,-24.738409,,
307.806,-54.234623,,
304.512,-84.52098,,
308.904,-102.505745,,
301.58398,-96.394966,,
321.714,-65.937256,,
324.276,-23.804188,,
327.204,12.949504,,
305.244,34.05358,,
333.792,40.885307,,
330.86398,42.028667,,
310.368,44.383263,,
336.72,47.678272,,
319.152,46.37839,,
315.126,36.21195,,
337.818,18.923832,,
329.4,1.1073107,,
334.524,-11.415067,,
335.256,-18.336351,,
320.616,-24.468237,,
344.04,-34.61817,,
346.968,-48.240215,,
331.962,-58.46934,,
340.746,-56.463566,,
351.72598,-37.74259,,
355.386,-5.8145456,,
364.536,29.350473,,
390.156,56.60612,,
392.352,68.911224,,
399.306,65.45913,,
379.176,50.17938,,
396.378,28.569605,,
401.868,5.309702,,
388.326,-16.261368,,
382.836,-33.497272,,
382.836,-44.0211,,
376.61398,-46.241142,,
375.15,-40.316975,,
371.49,-28.510942,,
361.608,-14.350726,,
364.536,-1.0559227,,
341.112,9.685955,,
345.87,17.785965,,
322.44598,23.763308,,
333.792,27.577183,,
305.61,28.220997,,
315.126,24.382404,,
296.826,15.671014,,
281.088,3.524484,,
295.728,-8.873615,,
290.97,-17.72396,,
280.722,-20.264221,,
280.722,-16.142796,,
291.336,-7.8088937,,
291.336,0.39335892,,
302.682,4.1749616,,
300.12,1.4818558,,
285.48,-6.2074604,,
292.8,-14.337001,,
310.734,-17.514442,,
295.362,-12.49403,,
294.63,-0.21197867,,
318.41998,14.464174,,
310.734,25.301956,,
322.44598,28.112276,,
308.538,22.87542,,
327.936,13.231568,,
311.832,3.7525167,,
334.158,-3.037081,,
310.734,-7.750966,,
309.27,-12.626646,,
337.452,-18.699936,,
328.302,-24.045546,,
311.466,-24.705236,,
314.76,-17.807928,,
330.86398,-4.499319,,
344.04,9.821357,,
320.25,18.559637,,
338.916,18.303532,,
318.41998,11.291163,,
339.28198,3.925747,,
321.714,2.1849928,,
343.30798,7.2118,,
320.25,14.409241,,
339.648,16.821606,,
331.962,10.331567,,
335.622,-3.2273607,,
314.76,-17.3639,,
340.014,-25.539017,,
326.106,-25.457897,,
311.832,-19.78136,,
339.28198,-12.990343,,
324.276,-7.2933455,,
329.4,-1.1583935,,
344.406,8.301573,,
320.982,21.267105,,
342.942,33.206074,,
340.38,37.010597,,
339.28198,27.900232,,
341.844,7.356317,,
311.466,-16.943676,,
343.674,-35.13042,,
317.322,-40.192955,,
325.74,-30.865553,,
331.962,-11.264696,,
342.576,11.409281,,
342.576,29.218061,,
345.138,35.30835,,
328.302,25.955652,,
338.916,3.104492,,
321.714,-24.217833,,
323.544,-42.230595,,
316.224,-39.215046,,
320.982,-13.587777,,
324.642,22.663826,,
342.21,49.281998,,
347.33398,49.909927,,
321.714,23.393593,,
318.054,-14.248786,,
327.57,-39.723442,,
315.858,-38.06708,,
315.492,-12.990202,,
338.55,15.805623,,
342.21,26.798903,,
339.28198,12.217758,,
311.832,-16.333282,,
320.25,-36.358974,,
342.576,-30.925598,,
327.936,-1.1440306,,
338.916,34.280876,,
341.478,51.984966,,
349.896,40.038177,,
337.452,5.8917627,,
323.544,-29.062733,,
329.766,-44.088154,,
322.812,-32.51884,,
334.524,-5.0056896,,
342.21,18.970913,,
350.262,24.802788,,
327.57,12.004147,,
344.04,-6.994036,,
328.668,-16.915041,,
328.302,-10.893797,,
347.33398,5.1687384,,
343.30798,17.901583,,
316.956,17.041908,,
337.452,3.206899,,
345.138,-12.899656,,
320.616,-19.021051,,
319.884,-10.918408,,
321.348,4.443418,,
338.916,14.519617,,
333.792,11.172949,,
320.25,-2.825223,,
323.544,-15.889666,,
315.858,-16.673376,,
320.25,-3.0013082,,
345.504,16.237562,,
321.714,27.602856,,
342.576,22.890516,,
324.642,4.763994,,
331.23,-15.672953,,
320.982,-26.956879,,
326.472,-24.612156,,
338.55,-12.650862,,
338.55,0.8514235,,
331.596,9.758531,,
338.184,12.755293,,
334.158,11.85778,,
346.236,9.1434355,,
343.674,5.1758065,,
322.08,0.15433961,,
319.518,-4.2668824,,
336.354,-5.2070866,,
340.014,-1.2114902,,
319.152,5.233685,,
324.642,8.388114,,
328.668,3.5100589,,
321.348,-8.52366,,
328.302,-20.470858,,
317.322,-23.302668,,
316.956,-13.059463,,
334.158,5.421711,,
342.21,21.265297,,
325.74,25.114794,,
341.844,15.825797,,
338.184,1.0805103,,
319.884,-8.611373,,
338.916,-7.852861,,
340.746,-0.044334102,,
336.72,5.962772,,
325.374,3.4046607,,
334.158,-6.7792854,,
343.674,-16.699612,,
328.668,-17.891468,,
323.544,-8.101267,,
342.576,6.8862915,,
338.916,17.624517,,
339.648,17.901548,,
338.916,8.752994,,
343.30798,-3.1301336,,
314.76,-10.706747,,
345.87,-11.089763,,
329.766,-6.0792875,,
341.112,0.6739714,,
323.544,6.6003904,,
344.406,10.657014,,
332.328,11.7780485,,
338.55,8.059684,,
311.466,-1.5080273,,
342.21,-14.152729,,
320.25,-22.826328,,
323.91,-20.182253,,
315.858,-4.842747,,
343.674,15.38628,,
329.034,27.313818,,
349.896,21.624773,,
321.348,0.83404386,,
322.812,-20.937828,,
338.55,-27.387133,,
322.812,-12.209594,,
351.36,15.27371,,
342.942,35.880146,,
332.328,33.936707,,
342.576,8.530318,,
337.818,-25.57719,,
322.08,-47.823215,,
319.884,-45.141933,,
316.956,-19.438198,,
349.164,14.993762,,
344.772,40.94144,,
339.28198,47.544453,,
338.184,34.114574,,
345.87,8.203661,,
322.44598,-18.923536,,
329.766,-36.508472,,
322.44598,-37.57463,,
337.086,-21.683872,,
347.33398,3.6466393,,
341.478,25.08781,,
341.112,30.154606,,
340.746,15.413911,,
342.21,-9.730482,,
343.674,-27.958342,,
324.276,-25.65248,,
319.152,-3.1541708,,
345.504,24.582233,,
347.69998,38.32547,,
346.602,28.510632,,
319.884,2.0815036,,
321.714,-23.13319,,
319.518,-31.967054,,
331.962,-22.570152,,
315.858,-5.9983654,,
341.112,4.1451507,,
317.322,2.8810883,,
338.916,-3.3573873,,
325.008,-3.897862,,
318.054,5.9272943,,
344.04,20.445957,,
333.792,28.528553,,
341.844,22.935005,,
320.25,5.9920936,,
316.224,-12.724699,,
320.25,-23.939709,,
335.622,-24.724054,,
316.224,-18.5399,,
317.322,-10.540918,,
323.91,-3.186341,,
335.988,4.0549965,,
325.74,11.662696,,
341.844,17.605146,,
327.57,18.338955,,
336.72,12.295597,,
337.818,2.2030308,,
321.348,-6.351215,,
333.06,-9.087402,,
341.478,-6.278723,,
319.152,-2.2280364,,
328.302,-1.4798545,,
342.942,-5.0215526,,
320.25,-9.531453,,
319.518,-10.054317,,
323.178,-3.843697,,
345.87,7.4193583,,
320.616,18.293325,,
325.74,22.445932,,
339.648,16.080885,,
322.812,0.36255792,,
325.008,-18.28109,,
315.492,-30.560625,,
320.616,-28.968573,,
343.674,-12.57299,,
320.982,11.214091,,
329.4,30.016497,,
342.21,33.785454,,
339.28198,21.337502,,
339.28198,1.1508932,,
315.858,-14.685484,,
315.126,-19.03537,,
319.884,-14.077925,,
334.158,-7.966158,,
323.91,-6.776737,,
321.348,-8.958775,,
314.39398,-7.4077654,,
327.57,2.614776,,
320.25,17.163366,,
342.942,25.392118,,
333.06,18.755404,,
325.374,-0.2573742,,
318.054,-18.229624,,
318.054,-20.897654,,
342.942,-5.3421564,,
334.88998,16.278904,,
346.968,25.543428,,
326.472,12.646418,,
325.74,-14.778109,,
340.38,-36.615086,,
326.472,-35.60319,,
330.86398,-10.983393,,
341.112,20.506039,,
345.504,37.19662,,
345.504,28.734684,,
336.354,3.3589852,,
342.576,-19.104488,,
314.39398,-22.583403,,
343.674,-6.3718657,,
344.406,15.47952,,
342.942,25.62734,,
339.28198,16.333431,,
332.328,-5.8100104,,
331.23,-25.868055,,
331.962,-31.64106,,
341.478,-21.27253,,
317.322,-2.640487,,
344.04,13.506546,,
342.942,20.62598,,
343.30798,18.802261,,
334.524,12.19412,,
331.596,4.921961,,
343.674,-1.0445731,,
315.126,-5.2171535,,
338.55,-7.079718,,
341.478,-5.940856,,
323.178,-2.3088717,,
322.44598,1.1069167,,
349.164,0.6160798,,
312.93,-5.3374944,,
343.30798,-13.736296,,
324.642,-17.882765,,
320.25,-11.823618,,
338.184,4.6028214,,
344.406,24.107838,,
338.916,35.61244,,
339.648,31.251432,,
338.55,11.966535,,
341.478,-12.45611,,
314.02798,-29.284538,,
341.112,-30.806095,,
327.57,-18.901049,,
335.256,-3.0943947,,
338.184,6.43019,,
343.30798,5.816525,,
324.642,-0.4181456,,
342.21,-3.5577655,,
336.354,2.161426,,
326.83798,14.757352,,
340.38,25.586815,,
345.504,25.5099,,
324.642,11.68077,,
326.83798,-9.887533,,
322.812,-27.805744,,
323.544,-32.451202,,
318.786,-21.95737,,
323.178,-3.1574826,,
346.236,12.947585,,
324.276,18.069887,,
328.302,11.407561,,
342.21,-0.54795665,,
323.544,-8.729091,,
325.374,-7.481687,,
339.28198,2.0260532,,
342.576,12.980663,,
318.786,17.676474,,
341.112,12.596181,,
346.236,0.5074491,,
324.642,-11.636701,,
318.054,-17.370361,,
331.962,-14.6906595,,
337.452,-6.7316546,,
336.72,1.0046811,,
323.91,4.564185,,
342.942,3.707502,,
322.44598,1.0571533,,
344.772,-0.5799103,,
341.112,-0.2544525,,
325.374,1.2487905,,
341.112,3.0448675,,
331.596,5.2523417,,
345.138,8.26003,,
341.112,10.996837,,
343.30798,10.449723,,
328.668,3.7467456,,
329.766,-8.51233,,
334.524,-20.85335,,
341.478,-25.61488,,
316.956,-18.441462,,
330.498,-2.340329,,
340.38,13.492115,,
335.622,19.883682,,
331.596,14.381426,,
337.818,3.0022671,,
325.74,-4.63309,,
321.714,-3.000424,,
344.04,5.0812287,,
312.198,11.171583,,
341.844,8.569674,,
328.668,-1.9505349,,
329.766,-12.869533,,
314.02798,-16.365807,,
322.812,-10.823224,,
340.746,-1.8139468,,
327.936,3.110828,,
331.23,1.0902805,,
325.374,-3.7838733,,
342.576,-4.454577,,
319.518,2.5321298,,
345.138,13.66404,,
342.576,21.102512,,
341.844,18.87409,,
328.668,7.3394933,,
344.406,-7.4641676,,
320.616,-18.459051,,
337.452,-21.952135,,
334.158,-18.59018,,
326.83798,-11.130035,,
328.668,-1.9209366,,
342.576,7.578165,,
338.55,15.63366,,
320.25,19.644054,,
345.87,17.458714,,
327.57,9.485049,,
327.204,-0.80850124,,
328.302,-8.989473,,
315.858,-12.685123,,
319.518,-12.7417,,
334.524,-11.458768,,
319.884,-9.760887,,
323.91,-6.287143,,
329.034,0.5692756,,
328.668,9.779453,,
333.792,17.173431,,
339.28198,18.31207,,
345.138,12.271956,,
316.956,2.6752365,,
342.576,-5.239935,,
341.112,-8.854286,,
326.83798,-9.654767,,
338.55,-10.568442,,
342.21,-11.9694,,
332.694,-10.735149,,
338.916,-3.7681496,,
342.942,7.3865323,,
346.968,15.967652,,
334.158,15.137288,,
341.112,4.709026,,
345.504,-7.1274176,,
319.884,-9.840145,,
333.426,0.083545975,,
342.942,14.796733,,
330.498,20.56601,,
329.4,9.333526,,
337.452,-13.367011,,
308.538,-31.564312,,
322.812,-31.268824,,
315.858,-12.053051,,
346.236,12.171454,,
322.44598,24.239029,,
338.184,17.55882,,
325.008,1.0262606,,
329.4,-9.139034,,
318.786,-3.6043897,,
349.896,12.015908,,
337.086,22.119995,,
325.008,14.767479,,
326.83798,-7.6780024,,
331.23,-29.88654,,
328.302,-35.59961,,
325.374,-20.246428,,
320.616,5.9990706,,
342.576,26.494385,,
338.55,30.302586,,
328.668,18.526463,,
340.014,0.9551646,,
317.322,-12.546509,,
312.198,-18.091942,,
325.74,-17.226645,,
339.648,-12.371999,,
319.518,-3.9572341,,
321.348,7.943187,,
345.138,20.097153,,
322.08,25.702116,,
345.87,18.93043,,
340.014,0.8464464,,
321.348,-19.172794,,
323.91,-28.975227,,
325.374,-22.396946,,
345.138,-4.1945696,,
334.88998,13.170519,,
342.576,18.62545,,
341.478,10.38004,,
320.982,-3.424983,,
339.648,-11.484173,,
339.648,-7.9349318,,
319.518,3.781825,,
341.844,14.250017,,
341.112,15.438469,,
325.74,6.328987,,
319.152,-6.9830294,,
335.988,-16.078527,,
323.91,-15.962275,,
319.518,-7.803304,,
344.772,2.6611872,,
322.08,9.369336,,
321.714,9.733245,,
344.772,5.6334515,,
336.72,1.2977725,,
322.44598,-0.21924588,,
347.69998,0.6333559,,
318.41998,0.5435043,,
336.72,-3.405394,,
332.694,-10.363581,,
341.844,-15.235237,,
336.72,-12.142781,,
318.786,0.39731136,,
340.014,16.826197,,
345.138,27.293928,,
350.262,24.478975,,
331.962,9.375129,,
318.786,-8.904101,,
335.622,-19.71344,,
319.518,-18.823498,,
338.55,-11.133057,,
315.858,-5.6829376,,
326.83798,-7.149219,,
339.28198,-11.358875,,
319.152,-9.150349,,
319.884,4.473691,,
342.942,24.067614,,
337.818,36.528934,,
346.968,31.370155,,
325.374,9.982529,,
327.57,-14.365158,,
322.44598,-26.441114,,
343.30798,-20.925163,,
321.348,-6.2622223,,
338.55,2.8964329,,
345.504,-1.6569182,,
316.956,-14.704711,,
331.23,-22.259483,,
345.504,-13.855234,,
320.25,8.070315,,
348.066,29.701586,,
347.69998,36.881493,,
326.472,26.191093,,
331.962,6.8120856,,
325.374,-7.9372168,,
338.184,-11.640895,,
319.884,-8.793568,,
321.348,-8.75909,,
325.74,-15.69332,,
312.198,-23.889957,,
343.30798,-22.910269,,
329.034,-7.869489,,
319.152,14.568331,,
343.30798,30.287209,,
342.942,28.812023,,
341.112,12.00762,,
330.86398,-7.1502585,,
333.792,-14.861232,,
315.858,-7.3041897,,
342.21,6.930473,,
345.504,14.507114,,
320.616,8.407574,,
328.668,-6.833661,,
321.714,-19.636595,,
322.08,-21.211954,,
329.034,-12.162764,,
310.368,-0.63496345,,
341.478,5.608719,,
320.982,5.7425246,,
337.818,5.328711,,
317.688,9.633007,,
343.30798,17.347826,,
344.04,20.807434,,
335.988,12.815509,,
324.642,-5.8980665,,
340.38,-25.413582,,
343.30798,-33.2056,,
313.662,-23.522787,,
345.87,-2.0064135,,
348.432,18.219248,,
343.30798,25.89706,,
345.504,19.119059,,
341.844,5.395252,,
321.714,-5.150619,,
340.014,-7.6031256,,
345.504,-4.9051476,,
322.08,-3.762492,,
342.942,-7.79478,,
323.91,-13.911734,,
328.668,-14.908966,,
344.04,-5.984359,,
345.504,10.353763,,
334.158,25.164219,,
345.87,29.213198,,
342.576,19.641483,,
345.138,2.0219638,,
327.57,-13.692856,,
327.204,-20.108166,,
344.04,-16.900242,,
324.276,-9.724138,,
328.302,-4.87465,,
333.06,-4.3178144,,
331.23,-5.0746775,,
338.184,-3.0206275,,
322.44598,2.6753,,
345.138,8.677852,,
328.302,10.985646,,
331.596,9.359112,,
344.406,8.052231,,
346.236,11.484225,,
339.28198,18.517967,,
333.426,21.170664,,
338.916,10.35837,,
344.772,-15.100866,,
322.812,-44.01326,,
323.544,-58.16441,,
320.982,-45.034714,,
335.256,-8.528731,,
337.452,31.426071,,
345.504,51.556126,,
345.504,41.496723,,
346.968,11.331294,,
314.76,-15.772466,,
327.204,-20.630777,,
329.4,-1.9610395,,
345.87,23.366856,,
339.648,33.6671,,
341.478,18.872255,,
319.518,-12.424545,,
316.59,-40.06923,,
323.544,-47.34631,,
312.93,-32.166405,,
339.28198,-6.657247,,
317.322,13.140656,,
323.544,18.63335,,
326.472,12.727167,,
321.714,4.979807,,
335.622,3.1550236,,
326.106,8.125444,,
318.41998,15.057801,,
339.28198,18.377298,,
332.694,15.772026,,
342.21,8.579072,,
344.772,-0.43121317,,
331.23,-9.098161,,
323.91,-16.181072,,
346.236,-20.668728,,
343.30798,-21.655663,,
321.714,-19.14212,,
343.30798,-14.545374,,
314.39398,-9.740323,,
337.086,-5.155754,,
335.622,1.0507011,,
319.518,11.283503,,
335.256,25.226316,,
317.322,37.95294,,
345.504,41.831367,,
337.818,31.589245,,
326.83798,8.920428,,
322.08,-17.202633,,
326.106,-35.322575,,
329.034,-38.2861,,
340.014,-27.293268,,
346.236,-10.487506,,
338.184,2.614265,,
345.87,6.7270765,,
344.772,2.775676,,
346.968,-4.315759,,
343.30798,-9.551759,,
326.472,-10.294158,,
331.23,-6.095504,,
331.23,2.7771668,,
325.374,15.842552,,
346.968,31.132557,,
340.014,43.667797,,
333.792,46.1407,,
320.25,32.734478,,
340.38,4.079634,,
345.138,-30.519339,,
310.734,-56.384796,,
320.982,-61.393158,,
323.178,-43.816074,,
341.478,-14.451637,,
343.30798,9.372072,,
340.38,14.791487,,
340.746,2.2224243,,
315.858,-14.469967,,
320.982,-17.338015,,
324.642,2.7037137,,
335.256,38.43391,,
344.04,70.106674,,
336.72,78.30289,,
319.518,56.91048,,
337.818,16.885426,,
323.178,-21.890608,,
342.942,-44.433758,,
315.858,-49.684834,,
333.792,-48.163113,,
331.596,-50.784435,,
350.994,-58.408257,,
358.68,-60.839172,,
339.648,-45.94362,,
364.536,-10.981449,,
355.02,33.55521,,
381.372,70.80995,,
383.202,89.17027,,
385.764,88.77508,,
353.922,77.87606,,
362.706,63.151543,,
353.556,43.334023,,
357.216,12.143366,,
339.28198,-32.383522,,
307.44,-81.29295,,
314.39398,-117.68894,,
319.518,-127.37663,,
304.146,-108.16221,,
307.806,-69.99487,,
322.44598,-26.520678,,
329.4,13.784509,,
323.544,49.195328,,
319.518,79.2911,,
322.44598,100.13477,,
307.806,106.73148,,
326.83798,100.55619,,
304.146,92.28325,,
307.44,92.49715,,
336.354,95.59112,,
314.39398,72.99454,,
333.426,-11.075833,,
304.146,-166.10004,,
280.722,-348.14752,,
274.866,-466.12946,,
310.00198,-427.90384,,
368.562,-201.86334,,
472.13998,147.691,,
577.914,480.82068,,
612.684,651.46045,612.684,16
584.502,585.44464,,
519.72,318.91757,,
395.646,-25.518333,,
311.466,-307.40057,,
273.036,-437.81494,,
222.528,-410.132,,
253.272,-281.88226,,
257.298,-128.85173,,
264.984,-4.4480815,,
274.866,74.42443,,
279.624,116.3104,,
284.016,135.61092,,
275.598,140.41283,,
292.434,132.13698,,
293.898,110.908104,,
277.794,78.91621,,
312.564,39.627266,,
311.466,-3.8577092,,
300.12,-47.971703,,
290.604,-86.229836,,
300.486,-109.04924,,
318.054,-108.07006,,
302.682,-82.462906,,
327.57,-41.76455,,
325.374,-1.8316926,,
321.714,24.009758,,
329.4,32.39502,,
310.734,30.519949,,
340.746,29.620478,,
307.074,36.290054,,
315.492,47.906265,,
338.55,55.085983,,
331.962,48.909443,,
327.57,27.52804,,
320.616,-2.329463,,
339.28198,-29.57472,,
334.158,-45.43239,,
325.374,-47.968113,,
345.504,-41.72828,,
335.622,-33.292038,,
354.654,-26.285929,,
359.046,-19.523737,,
359.412,-9.396134,,
353.556,5.6905494,,
371.49,22.631397,,
379.176,35.074417,,
377.346,37.957096,,
391.62,31.400839,,
386.862,20.627348,,
381.738,11.85643,,
382.836,7.6106644,,
407.724,5.415241,,
389.424,0.8972457,,
397.842,-7.67149,,
376.98,-17.650187,,
385.03198,-24.693295,,
362.34,-27.07319,,
372.58798,-27.136713,,
352.824,-28.05608,,
335.256,-28.911081,,
329.4,-23.492754,,
316.956,-5.306857,,
330.132,24.761547,,
306.342,55.25504,,
315.858,69.79933,,
308.904,58.5348,,
285.846,26.43703,,
283.284,-8.951402,,
277.794,-29.634586,,
272.66998,-29.969038,,
285.48,-19.792921,,
293.166,-15.082749,,
275.232,-23.696056,,
284.382,-38.132687,,
296.826,-41.645466,,
291.702,-22.890257,,
307.074,13.058025,,
312.93,46.76846,,
315.858,58.361805,,
322.08,42.26667,,
315.126,11.101266,,
303.048,-14.202541,,
301.95,-19.923737,,
314.39398,-8.494273,,
315.858,5.533252,,
331.23,8.2759,,
309.27,-2.6943543,,
322.08,-17.806942,,
323.178,-24.53339,,
315.492,-17.788118,,
336.354,-3.226233,,
328.302,8.4207945,,
337.086,10.408114,,
315.126,4.746492,,
338.55,-0.6815228,,
327.204,0.548215,,
329.766,8.048653,,
316.956,15.339472,,
338.55,15.423006,,
320.25,6.356544,,
316.956,-7.388883,,
329.4,-18.22978,,
315.492,-20.444284,,
314.39398,-13.25952,,
331.23,-0.56112224,,
335.988,11.749571,,
341.112,18.68984,,
317.688,17.994501,,
342.21,10.495821,,
339.28198,-0.5924445,,
342.942,-11.119824,,
312.198,-17.73608,,
331.596,-19.175766,,
341.844,-16.294115,,
340.014,-10.768814,,
318.054,-3.5175326,,
346.968,5.6562905,,
340.014,16.640226,,
344.04,27.059528,,
336.354,32.012005,,
349.53,26.638172,,
335.622,10.140301,,
335.988,-11.980128,,
325.008,-29.949202,,
326.106,-35.35455,,
327.57,-26.614107,,
336.72,-10.127633,,
334.158,4.0593114,,
343.30798,9.093066,,
325.374,5.6508765,,
332.328,0.6145222,,
343.674,1.2182685,,
339.28198,9.211584,,
332.694,19.433764,,
332.694,23.719896,,
344.04,17.048536,,
340.746,1.3653998,,
330.86398,-15.511095,,
314.02798,-24.84776,,
334.524,-22.263723,,
348.432,-10.00459,,
318.054,4.7247434,,
341.112,13.874766,,
341.844,12.665617,,
329.034,1.8572546,,
342.576,-12.512795,,
319.518,-21.751669,,
326.472,-18.730003,,
339.28198,-2.18479,,
336.72,21.167088,,
342.576,38.778076,,
349.53,38.77114,,
336.72,17.745117,,
323.544,-15.215069,,
331.596,-42.136177,,
320.25,-46.48986,,
340.014,-24.201082,,
330.132,12.345196,,
344.772,41.030777,,
344.772,43.864998,,
342.942,18.87919,,
332.328,-18.305187,,
317.688,-44.649704,,
315.126,-44.730785,,
330.86398,-20.259844,,
325.008,12.252913,,
337.086,33.47074,,
337.818,33.93674,,
326.106,18.704468,,
320.982,1.5525017,,
322.812,-5.915321,,
320.616,-1.9354883,,
319.152,5.94721,,
337.818,7.978369,,
316.956,-0.24842189,,
315.126,-15.183434,,
320.616,-28.537004,,
315.492,-32.92715,,
334.524,-25.741095,,
315.126,-9.445651,,
342.21,10.465368,,
328.668,27.772257,,
348.066,37.156883,,
340.746,35.596424,,
343.674,23.814056,,
341.112,6.7977786,,
327.936,-8.080401,,
319.518,-15.251548,,
339.648,-14.827719,,
338.184,-12.6967325,,
319.152,-15.7337675,,
333.426,-25.217623,,
315.858,-33.93778,,
315.492,-30.416111,,
342.942,-8.120539,,
340.38,27.170694,,
340.38,58.34864,,
340.014,66.96537,,
345.138,45.79548,,
343.30798,4.81592,,
316.59,-34.306335,,
325.74,-51.83437,,
324.276,-42.22899,,
318.054,-16.496534,,
346.968,6.676552,,
345.504,14.168448,,
319.884,6.3814125,,
343.30798,-5.301218,,
335.622,-8.692609,,
322.08,-0.3101459,,
346.236,12.897056,,
324.642,20.187134,,
342.21,16.097157,,
344.04,4.5390234,,
324.276,-5.061177,,
314.39398,-6.012268,,
337.452,-0.013269724,,
345.504,4.469858,,
338.184,-0.2270893,,
319.152,-13.677353,,
326.106,-26.48491,,
327.936,-26.952301,,
342.21,-10.419996,,
344.406,15.948949,,
340.014,36.97364,,
347.33398,39.48772,,
328.302,21.452047,,
339.28198,-6.5043902,,
337.452,-28.270765,,
311.1,-32.917755,,
327.936,-21.12818,,
319.884,-3.0624619,,
346.236,10.075605,,
315.492,13.861309,,
336.72,11.915785,,
338.55,10.4005575,,
334.88998,11.223232,,
326.472,10.285458,,
326.106,2.3450308,,
342.576,-12.178379,,
342.21,-25.256447,,
319.152,-26.831581,,
339.28198,-13.610036,,
341.478,6.807011,,
343.30798,20.89022,,
349.53,19.809044,,
339.648,6.8206177,,
346.602,-5.335697,,
320.25,-5.3871045,,
335.622,6.3739605,,
339.648,17.856922,,
340.746,15.577853,,
323.91,-2.945361,,
323.544,-25.707293,,
313.662,-35.250427,,
326.472,-23.022575,,
328.302,3.0751705,,
336.72,24.595747,,
348.432,27.16921,,
320.25,11.632347,,
343.30798,-7.5548053,,
333.426,-14.928342,,
332.328,-6.6744084,,
346.236,7.3577986,,
339.28198,13.4226,,
344.04,6.325683,,
336.72,-6.5000725,,
333.426,-12.513902,,
341.844,-5.970764,,
323.544,6.7108846,,
345.87,12.887394,,
340.746,5.415672,,
320.25,-10.497452,,
326.83798,-21.50102,,
318.054,-17.619293,,
335.988,-0.9144376,,
342.942,16.212551,,
322.812,21.419268,,
337.452,12.411347,,
331.962,-1.8822724,,
325.008,-9.46556,,
340.014,-5.3595,,
331.962,4.9378004,,
334.88998,10.9868765,,
334.158,6.586492,,
341.844,-5.3375897,,
318.786,-15.761741,,
331.23,-17.226282,,
338.184,-9.415531,,
330.498,1.5221056,,
339.648,8.458526,,
321.348,8.517496,,
341.478,4.114419,,
333.792,-0.034484856,,
342.21,-0.6848269,,
320.616,2.3220105,,
344.772,6.914128,,
324.642,10.402605,,
347.69998,10.42468,,
345.87,5.399605,,
316.59,-4.590706,,
341.478,-16.622387,,
317.688,-24.995634,,
341.478,-23.834421,,
322.08,-11.267895,,
337.086,7.9404383,,
346.236,24.109394,,
326.106,28.350056,,
341.844,18.465456,,
329.4,0.6149882,,
337.818,-14.655223,,
326.472,-19.149801,,
314.76,-11.7155,,
339.648,2.0325415,,
344.406,13.948108,,
340.746,18.007128,,
329.4,12.512731,,
325.74,-0.31793836,,
345.87,-15.6937895,,
327.936,-27.354675,,
315.126,-29.01635,,
327.936,-17.182686,,
338.916,5.4480963,,
342.21,28.960258,,
335.256,40.2402,,
323.544,31.050087,,
343.674,4.908127,,
325.374,-23.174852,,
312.93,-35.5364,,
321.348,-23.940367,,
329.766,3.908987,,
345.504,28.905403,,
329.4,33.532272,,
345.138,14.07603,,
331.23,-16.897562,,
330.86398,-39.550217,,
309.27,-40.442474,,
340.014,-20.842016,,
351.36,5.8476152,,
343.674,24.63409,,
341.112,28.948101,,
333.792,22.939365,,
352.092,15.539371,,
338.916,12.112884,,
335.988,10.640721,,
338.55,4.947903,,
324.642,-8.434621,,
319.518,-25.82035,,
320.616,-38.012165,,
330.498,-36.699028,,
317.688,-20.657845,,
332.694,2.8391266,,
317.322,22.375507,,
342.576,29.432772,,
345.138,23.391161,,
330.86398,11.299092,,
322.08,2.7008939,,
329.034,2.971938,,
344.04,9.578637,,
340.014,13.891494,,
325.74,7.6072764,,
334.158,-10.414815,,
333.792,-31.837942,,
327.936,-43.33279,,
310.368,-35.456596,,
348.798,-9.9471855,,
346.236,20.120249,,
338.184,38.176243,,
342.576,34.98094,,
345.87,14.787525,,
344.406,-7.7837086,,
314.02798,-18.054602,,
343.30798,-11.28166,,
340.38,4.9210033,,
338.55,17.149515,,
334.158,16.349682,,
340.746,3.7083805,,
342.21,-11.672613,,
320.616,-20.54361,,
325.374,-19.955803,,
345.87,-13.542019,,
338.916,-6.556745,,
313.296,-0.9824665,,
348.798,4.779211,,
345.504,12.021743,,
327.936,18.280228,,
346.236,18.454182,,
336.72,9.920407,,
316.59,-3.3547761,,
342.942,-12.381922,,
338.916,-10.024436,,
317.688,2.428752,,
331.23,15.058341,,
345.138,16.427013,,
320.982,2.6106925,,
338.916,-19.19137,,
318.41998,-35.498077,,
318.41998,-35.983444,,
319.152,-20.12222,,
342.21,3.624597,,
345.138,24.434105,,
337.086,35.6302,,
335.256,36.382015,,
346.968,28.918325,,
346.968,15.39313,,
323.91,-2.2774823,,
325.008,-20.39136,,
345.504,-32.883118,,
318.41998,-34.335155,,
323.91,-24.418114,,
336.72,-9.1465225,,
329.034,3.2695482,,
350.628,8.891016,,
341.112,10.818028,,
323.91,15.125272,,
344.772,23.35856,,
345.138,28.9851,,
344.772,22.2686,,
342.21,0.19392157,,
319.884,-27.597307,,
319.884,-43.563026,,
327.936,-35.31818,,
345.504,-6.556291,,
338.55,24.002808,,
332.694,35.961308,,
336.72,22.634499,,
336.72,-4.069931,,
320.982,-23.427687,,
338.916,-22.304115,,
317.322,-4.700334,,
318.054,13.055983,,
344.04,16.736876,,
341.478,5.678849,,
316.956,-8.099611,,
323.544,-11.43897,,
328.302,-1.5452094,,
331.962,12.41394,,
337.818,18.128954,,
336.354,10.770686,,
327.57,-3.9648767,,
325.374,-16.084866,,
326.472,-19.981916,,
319.152,-17.340734,,
338.184,-12.552442,,
337.452,-6.5773997,,
314.39398,3.6286395,,
336.72,19.350485,,
343.674,34.563885,,
334.524,37.815548,,
334.158,21.603838,,
327.936,-8.86051,,
319.152,-36.568333,,
314.39398,-44.32874,,
312.93,-28.111774,,
327.57,-0.586802,,
347.69998,18.794989,,
321.714,19.156235,,
326.472,5.9964905,,
317.688,-5.083032,,
343.30798,-2.9157798,,
320.616,9.456297,,
338.55,18.35375,,
324.642,12.844948,,
326.106,-4.441996,,
334.88998,-19.080173,,
320.982,-17.732483,,
327.57,-0.58348775,,
340.38,17.970312,,
337.818,21.237917,,
339.28198,4.470519,,
330.86398,-20.852455,,
318.786,-36.191647,,
342.576,-30.523676,,
325.74,-8.100087,,
346.602,16.356735,,
352.824,29.834871,,
342.576,29.777395,,
340.38,22.743479,,
338.184,15.856824,,
345.504,9.909494,,
341.112,0.3964664,,
329.034,-15.379586,,
318.786,-32.78675,,
322.08,-41.792885,,
331.596,-34.903282,,
328.668,-13.893351,,
336.354,10.806627,,
330.86398,27.550789,,
346.236,31.27772,,
339.28198,25.331491,,
335.256,16.661854,,
337.818,9.505517,,
333.792,3.2529483,,
339.28198,-4.4253354,,
318.786,-13.226598,,
337.086,-19.404314,,
331.962,-19.25017,,
323.91,-13.078388,,
341.844,-5.3852606,,
320.616,-0.7811597,,
343.30798,0.30034566,,
326.472,1.6756128,,
334.88998,6.9194775,,
341.844,14.658805,,
335.256,18.634796,,
317.322,13.201065,,
350.628,-0.46704566,,
333.06,-13.515176,,
318.054,-15.66023,,
323.91,-3.9211934,,
342.942,13.584889,,
336.354,22.663624,,
345.87,13.627709,,
312.93,-10.625793,,
318.786,-35.53029,,
322.812,-44.438892,,
317.688,-29.97745,,
331.23,0.980549,,
340.38,31.96911,,
315.126,47.467648,,
345.504,41.813164,,
334.524,20.914547,,
325.374,-3.2018225,,
318.41998,-20.221857,,
315.492,-26.316013,,
325.008,-23.676281,,
336.72,-16.727148,,
315.858,-8.6873255,,
336.72,-0.77324045,,
342.576,6.4604797,,
339.648,11.819341,,
334.158,13.75144,,
342.576,11.778639,,
340.746,7.3252926,,
340.746,2.7731006,,
344.04,-0.5572663,,
319.884,-3.4805346,,
346.968,-7.702626,,
334.88998,-13.102383,,
316.59,-16.2025,,
335.622,-12.008354,,
344.04,1.4212903,,
335.256,19.261635,,
322.44598,30.973522,,
347.33398,26.783333,,
337.818,5.5829997,,
323.544,-22.009846,,
318.41998,-39.04753,,
325.374,-33.496822,,
324.276,-7.539958,,
337.818,22.520414,,
345.504,36.809517,,
329.4,25.90704,,
343.674,-1.9884986,,
313.296,-26.616531,,
318.786,-30.349653,,
338.184,-11.192054,,
333.792,15.893996,,
334.88998,30.557756,,
340.38,22.698088,,
338.184,-0.034254093,,
316.224,-18.823519,,
323.178,-19.148043,,
348.066,-2.6689594,,
345.504,14.210258,,
320.25,14.183719,,
326.472,-5.853889,,
345.504,-30.956734,,
314.39398,-39.219578,,
334.524,-19.392061,,
340.746,19.013222,,
344.406,51.533962,,
342.576,56.385296,,
338.916,30.367342,,
342.576,-9.184495,,
326.106,-37.629677,,
319.518,-40.80402,,
318.786,-23.56418,,
336.354,-3.2228346,,
343.674,5.689266,,
342.942,2.35483,,
321.348,-2.278029,,
340.38,2.4259279,,
338.55,15.841802,,
348.066,26.097282,,
342.21,20.966215,,
325.374,-0.12423486,,
340.746,-23.822838,,
324.642,-32.772976,,
326.106,-19.607458,,
329.766,6.714495,,
346.236,27.581886,,
338.916,28.935265,,
343.674,11.462133,,
318.054,-11.073327,,
317.688,-23.25331,,
341.112,-19.411394,,
329.034,-6.12642,,
337.452,5.013368,,
320.982,7.2452345,,
336.354,2.7611034,,
339.28198,-1.2689075,,
334.158,-0.0061432864,,
321.348,5.2785625,,
338.184,9.604091,,
347.69998,9.509824,,
326.106,5.7031493,,
322.44598,1.0625062,,
335.988,-3.073507,,
342.942,-7.8782797,,
318.786,-14.150543,,
335.622,-19.042692,,
319.152,-16.822495,,
334.88998,-4.119742,,
349.896,14.979195,,
344.772,29.584507,,
327.936,29.309591,,
346.602,12.790495,,
344.04,-10.02816,,
322.44598,-24.589075,,
322.08,-22.508411,,
348.432,-7.715874,,
341.478,7.1848717,,
320.982,11.309889,,
335.256,3.936115,,
341.844,-5.9422526,,
342.21,-8.176842,,
314.76,-0.48147833,,
337.086,9.896518,,
341.112,13.031986,,
339.28198,5.4285254,,
335.256,-6.694579,,
325.374,-12.738894,,
327.57,-6.9445806,,
342.576,6.485433,,
347.69998,16.638008,,
322.44598,14.639784,,
348.798,0.6248931,,
312.564,-16.492592,,
334.158,-25.745625,,
331.962,-21.687275,,
318.054,-7.237613,,
341.478,9.387259,,
325.008,20.3503,,
342.942,22.13044,,
343.674,15.876457,,
323.178,5.4334865,,
323.91,-4.746561,,
344.406,-10.888561,,
338.55,-10.888859,,
320.982,-5.3983335,,
347.69998,1.8617377,,
330.132,5.77422,,
337.818,3.196323,,
343.30798,-4.359113,,
337.452,-11.354655,,
320.25,-12.313367,,
328.668,-6.266368,,
332.694,2.3484364,,
346.236,7.4367723,,
319.884,6.5573425,,
332.328,3.0132678,,
324.642,2.6197677,,
329.034,7.8961687,,
341.478,15.032601,,
338.916,16.723886,,
319.518,8.666639,,
342.942,-6.03485,,
325.008,-18.71829,,
340.746,-21.943024,,
317.688,-15.387075,,
347.33398,-5.7024117,,
343.30798,-0.48704255,,
320.982,-1.7613308,,
340.746,-4.737004,,
341.478,-2.855954,,
333.06,5.597458,,
332.328,15.409518,,
342.21,18.857502,,
333.426,12.724394,,
325.74,1.6228317,,
342.576,-5.437712,,
323.91,-2.4332883,,
334.88998,8.494996,,
326.472,18.265835,,
345.138,17.38151,,
338.916,2.630182,,
318.054,-20.75337,,
321.348,-42.29081,,
313.662,-51.913708,,
323.91,-44.422565,,
325.008,-21.084236,,
329.766,11.131176,,
337.086,41.698174,,
342.942,59.815372,,
342.21,58.639153,,
331.962,39.001152,,
343.30798,9.962635,,
320.25,-15.406584,,
323.178,-27.304022,,
330.86398,-24.812666,,
326.83798,-15.595746,,
324.276,-9.63497,,
343.30798,-11.736945,,
323.544,-18.626335,,
341.844,-22.658287,,
311.466,-18.656322,,
323.178,-7.94304,,
336.354,3.5918481,,
341.478,11.123805,,
334.524,14.838969,,
315.126,18.710428,,
330.86398,25.6049,,
341.478,33.558273,,
342.21,36.743893,,
352.458,30.149063,,
328.302,13.6519375,,
324.642,-7.924269,,
338.55,-28.260265,,
334.88998,-42.973377,,
337.452,-50.253704,,
329.034,-49.28852,,
323.544,-39.332348,,
327.57,-21.064047,,
342.21,1.3940134,,
344.772,20.975548,,
339.28198,31.656359,,
322.08,32.93478,,
319.152,30.35136,,
345.138,30.694588,,
334.158,35.63656,,
322.44598,39.622223,,
329.034,34.398586,,
340.38,16.451248,,
329.034,-9.388448,,
338.184,-33.60438,,
323.178,-49.57011,,
337.452,-57.83907,,
345.504,-63.00267,,
334.88998,-66.28522,,
340.014,-61.617687,,
353.19,-40.020782,,
356.118,0.9099711,,
368.928,51.20783,,
373.686,92.6665,,
374.784,110.34849,,
372.954,101.95122,,
358.314,77.10515,,
364.536,47.66921,,
346.602,18.19681,,
334.158,-14.719912,,
312.198,-54.231293,,
328.302,-94.82934,,
326.106,-122.71043,,
301.95,-125.28737,,
291.336,-101.108345,,
327.204,-60.745167,,
320.25,-17.83623,,
323.544,20.968918,,
327.57,57.501873,,
327.204,94.24359,,
325.74,126.270226,,
310.368,142.55174,,
335.622,136.07039,,
328.302,111.56766,,
314.02798,80.36096,,
324.276,44.88349,,
307.074,-10.803782,,
313.296,-109.332565,,
323.544,-250.36436,,
275.598,-387.10345,,
300.486,-436.09882,,
345.504,-324.9998,,
424.194,-50.288002,,
526.674,298.53995,,
595.482,573.9039,,
626.592,648.5511,626.592,16
559.248,488.2176,,
466.65,170.36784,,
360.14398,-162.75313,,
293.166,-383.86166,,
232.41,-440.77512,,
241.194,-363.2928,,
247.782,-223.31241,,
251.076,-84.40925,,
256.566,24.179047,,
274.866,100.63342,,
266.814,148.94176,,
291.702,166.67612,,
276.69598,150.4673,,
267.18,107.84207,,
275.598,58.9993,,
285.48,24.291931,,
282.918,8.995907,,
308.904,0.53274703,,
320.25,-18.386793,,
297.924,-52.451447,,
300.852,-88.08008,,
311.1,-104.44719,,
322.08,-91.0404,,
304.878,-56.062416,,
329.4,-18.83758,,
325.008,6.0866785,,
322.08,18.690931,,
314.02798,29.285027,,
332.694,45.71742,,
334.158,64.61465,,
325.008,74.43971,,
331.962,66.54825,,
323.178,43.25083,,
323.544,15.510428,,
329.034,-6.804799,,
337.818,-22.353373,,
313.662,-36.563446,,
320.982,-53.140594,,
330.86398,-67.80272,,
332.694,-70.73521,,
339.648,-55.505604,,
345.504,-25.787472,,
350.262,6.649126,,
377.346,30.816217,,
371.49,43.905193,,
387.96,50.513092,,
394.548,55.096893,,
385.398,55.66132,,
403.332,45.374687,,
402.6,20.80994,,
393.08398,-11.444094,,
383.202,-37.11455,,
393.816,-44.602516,,
396.012,-34.54049,,
377.346,-19.6766,,
386.496,-14.427738,,
370.392,-22.673527,,
369.294,-34.26831,,
347.33398,-33.47411,,
331.596,-12.377525,,
338.55,21.835505,,
341.478,51.607056,,
326.106,61.6181,,
318.786,49.06295,,
292.8,23.995773,,
285.48,0.68091273,,
294.264,-12.273442,,
287.676,-15.502825,,
271.938,-14.975737,,
289.13998,-15.544654,,
274.866,-17.78879,,
300.486,-19.676304,,
273.402,-19.82816,,
308.538,-18.45576,,
286.212,-15.4577675,,
299.754,-8.737274,,
297.924,4.293935,,
314.02798,22.719875,,
322.08,39.721252,,
312.564,45.27351,,
310.368,33.022755,,
327.204,6.1542516,,
300.486,-22.928764,,
292.8,-39.675777,,
316.224,-36.364265,,
326.83798,-16.55478,,
312.93,7.8639297,,
314.39398,24.355774,,
335.256,26.45627,,
340.38,15.5158205,,
314.39398,-2.179167,,
316.224,-19.466835,,
309.27,-30.595747,,
319.152,-31.617092,,
318.054,-20.762814,,
318.786,0.08459665,,
329.766,24.14819,,
315.126,41.222412,,
342.21,42.56265,,
334.524,26.5576,,
310.00198,0.82701135,,
327.204,-21.648237,,
310.734,-30.327826,,
319.518,-23.518826,,
338.916,-8.793831,,
324.642,2.813994,,
326.83798,4.5062003,,
332.694,-2.2176375,,
338.55,-9.665621,,
320.982,-10.13226,,
335.988,-1.3996067,,
339.28198,12.106407,,
330.86398,22.647364,,
345.504,24.12254,,
325.008,15.326862,,
344.772,0.05206742,,
327.57,-15.213226,,
321.348,-24.272915,,
328.302,-23.609535,,
334.524,-13.6416235,,
331.23,1.370891,,
344.406,14.961637,,
340.38,21.357056,,
343.30798,18.390593,,
326.83798,8.607314,,
344.772,-2.45642,,
328.668,-9.844217,,
345.138,-12.033768,,
324.276,-10.914485,,
320.25,-9.100449,,
337.086,-7.1555743,,
348.798,-3.421454,,
318.054,3.336362,,
340.38,11.152942,,
339.28198,15.149689,,
328.668,11.371353,,
337.086,1.0364957,,
343.30798,-9.011584,,
322.08,-10.960784,,
331.596,-2.4701881,,
348.066,10.595442,,
337.452,18.000658,,
336.354,12.911034,,
334.158,-2.643261,,
331.23,-19.191883,,
344.406,-26.981401,,
317.688,-22.869957,,
319.884,-11.361749,,
345.504,0.4895009,,
344.04,9.15201,,
333.792,15.976839,,
340.38,23.022108,,
338.55,28.152925,,
331.962,25.158476,,
345.87,9.715062,,
337.086,-14.20473,,
325.008,-34.30679,,
319.152,-37.914204,,
319.884,-21.972765,,
345.504,3.5210142,,
344.772,22.316662,,
343.30798,23.867119,,
325.008,10.679973,,
344.772,-4.953893,,
315.126,-11.750429,,
344.04,-8.209939,,
345.87,-1.9238205,,
325.008,-0.70234036,,
325.008,-4.2908063,,
339.28198,-4.7528405,,
342.576,4.7068706,,
340.746,20.99709,,
337.818,31.447542,,
342.576,24.029633,,
331.596,-1.1135125,,
323.544,-29.475826,,
342.576,-42.326267,,
308.172,-31.316137,,
326.106,-5.3049874,,
343.30798,16.62002,,
342.942,20.311443,,
326.106,7.319408,,
331.23,-7.5642567,,
320.616,-9.506159,,
331.23,3.8680816,,
342.942,21.11789,,
340.38,27.353949,,
332.328,16.926847,,
313.662,-2.4479094,,
343.674,-17.067781,,
322.44598,-18.989347,,
336.354,-11.68745,,
322.44598,-5.199157,,
329.4,-5.939822,,
331.23,-10.863852,,
339.648,-11.180466,,
318.054,-1.7712593,,
342.576,12.825958,,
344.772,21.737812,,
337.452,17.531868,,
322.812,3.463484,,
331.962,-8.701162,,
345.504,-8.710182,,
334.88998,3.0756035,,
340.38,15.677456,,
320.982,16.802454,,
345.504,3.4354548,,
342.576,-15.486312,,
324.276,-26.58751,,
338.916,-23.122889,,
315.858,-9.965442,,
339.648,1.6007421,,
340.746,4.3161283,,
346.602,1.0879656,,
329.766,1.3205057,,
325.008,10.880351,,
342.942,25.05176,,
345.138,31.358091,,
341.112,20.354273,,
327.936,-4.8722258,,
318.41998,-29.162222,,
318.786,-36.153316,,
337.452,-21.095871,,
322.44598,4.8393254,,
329.4,22.547579,,
345.138,19.228664,,
327.936,-2.1073303,,
319.518,-25.032433,,
320.25,-31.885635,,
324.276,-16.401358,,
342.576,12.338731,,
334.88998,36.787834,,
346.968,42.917274,,
338.916,28.645796,,
326.472,3.597823,,
326.472,-18.364264,,
348.066,-27.874966,,
319.518,-24.374386,,
327.57,-14.227945,,
327.936,-5.1320243,,
345.138,-1.0503778,,
337.452,-0.7146809,,
338.916,0.047943432,,
321.714,4.3013363,,
343.674,11.2329445,,
342.21,16.536896,,
344.04,15.676032,,
316.956,7.684805,,
345.138,-3.4226954,,
329.034,-11.050135,,
321.714,-10.775041,,
339.28198,-3.891553,,
335.256,3.3084624,,
316.956,4.378264,,
333.792,-1.9613076,,
340.38,-10.462067,,
323.544,-13.4217005,,
329.034,-7.105122,,
315.126,4.8332953,,
343.30798,14.022991,,
336.72,14.11907,,
333.426,5.955251,,
318.41998,-3.3563526,,
325.74,-6.6432986,,
317.322,-2.7562888,,
342.942,2.893848,,
323.91,3.8166678,,
326.83798,-1.1064976,,
317.688,-6.30358,,
326.106,-4.859562,,
339.28198,4.1770196,,
322.44598,13.469841,,
345.504,12.917782,,
325.74,-1.1590356,,
325.74,-21.162233,,
327.57,-32.606934,,
332.694,-25.01847,,
339.28198,-0.7678582,,
338.916,25.594381,,
345.87,37.532665,,
347.69998,28.563774,,
342.576,6.790633,,
324.642,-11.600397,,
337.086,-14.781018,,
327.936,-4.0013614,,
336.354,8.035794,,
342.942,7.680841,,
316.59,-8.49586,,
322.44598,-30.402233,,
314.39398,-41.411346,,
324.276,-30.397581,,
345.138,-0.07110885,,
315.858,34.20591,,
342.576,54.068825,,
342.21,49.501865,,
342.942,24.411478,,
331.23,-6.7282577,,
322.812,-28.290535,,
317.322,-32.521683,,
325.008,-22.652954,,
330.132,-8.91676,,
346.602,-0.8904862,,
325.74,-1.4956098,,
323.178,-6.276983,,
320.982,-7.7601776,,
345.87,-1.406841,,
326.83798,10.995818,,
